ECG_Export_4.1
Raw ECG to MV (gain) = 0.003000
CS1(11) CS2(12) CS3(13) CS4(14) CS5(15) CS6(16) CS7(17) CS8(18) CS9(19) CS10(20) V1(22) V2(23) V3(24) V4(25) V5(26) V6(27) CS1-CS2(101) CS2-CS3(102) CS3-CS4(103) CS4-CS5(104) CS5-CS6(105) CS6-CS7(106) CS7-CS8(107) CS8-CS9(108) CS9-CS10(109) I(110) II(111) III(112) aVL(171) aVR(172) aVF(173) MCC_Dx_BiPolar_1(197) MCC_Dx_BiPolar_2(198) MCC_Dx_BiPolar_3(199) MCC_Dx_BiPolar_4(200) MCC_Dx_BiPolar_5(201) MCC_Dx_BiPolar_6(202) MCC_Dx_BiPolar_7(203) MCC_Dx_BiPolar_8(204) MCC_Dx_BiPolar_9(205) MCC_Dx_BiPolar_10(206) MCC_Dx_BiPolar_11(207) MCC_Dx_BiPolar_12(208) MCC_Dx_BiPolar_13(209) MCC_Dx_BiPolar_14(210) MCC_Dx_BiPolar_15(211) MCC_Dx_BiPolar_16(212) MCC_Dx_BiPolar_17(213) MCC_Dx_BiPolar_18(214) MCC_Dx_BiPolar_19(215) MCC_Dx_BiPolar_20(216) MCC_Dx_BiPolar_21(217) MCC_Dx_BiPolar_22(218) MCC_Dx_BiPolar_23(219) MCC_Dx_BiPolar_24(220) MCC_Dx_BiPolar_25(221) MCC_Dx_BiPolar_26(222) MCC_Dx_BiPolar_27(223) MCC_Dx_BiPolar_28(224) MCC_Dx_BiPolar_29(225) MCC_Dx_BiPolar_30(226) MCC_Dx_BiPolar_31(227) MCC_Dx_BiPolar_32(228) MCC_Dx_BiPolar_33(229) MCC_Dx_BiPolar_34(230) MCC_Dx_BiPolar_35(231) MCC_Dx_BiPolar_36(232) MCC_Dx_BiPolar_37(233) MCC_Dx_BiPolar_38(234) MCC_Dx_BiPolar_39(235) MCC_Dx_BiPolar_40(236) MCC_Dx_BiPolar_41(237) MCC_Dx_BiPolar_42(238) MCC_Dx_BiPolar_43(239) MCC_Dx_BiPolar_44(240) MCC_Dx_BiPolar_45(241) MCC_Dx_BiPolar_46(242) MCC_Dx_BiPolar_47(243) MCC_Dx_BiPolar_48(244) MCC_Dx_BiPolar_49(245) MCC_Dx_BiPolar_50(246) MCC_Dx_BiPolar_51(247) MCC_Dx_BiPolar_52(248) MCC_Dx_BiPolar_53(249) MCC_Dx_BiPolar_54(250) MCC_Dx_BiPolar_55(251) MCC_Dx_BiPolar_56(252) MCC_Dx_BiPolar_57(253) MCC_Dx_BiPolar_58(254) MCC_Dx_BiPolar_59(255) MCC_Dx_BiPolar_60(256) MCC_Dx_MultiPolar_61(257) MCC_Dx_MultiPolar_62(258) MCC_Dx_MultiPolar_63(259) MCC_Dx_MultiPolar_64(260) MCC_Dx_MultiPolar_65(261) MCC_Dx_MultiPolar_66(262) MCC_Dx_MultiPolar_67(263) MCC_Dx_MultiPolar_68(264) MCC_Dx_MultiPolar_69(265) MCC_Dx_MultiPolar_70(266) MCC_Dx_MultiPolar_71(267) MCC_Dx_MultiPolar_72(268) MCC_Dx_MultiPolar_73(269) MCC_Dx_MultiPolar_74(270) MCC_Dx_MultiPolar_75(271) MCC_Dx_MultiPolar_76(272) MCC_Dx_MultiPolar_77(273) MCC_Dx_MultiPolar_78(274) MCC_Dx_MultiPolar_79(275) MCC_Dx_MultiPolar_80(276) MCC_Dx_MultiPolar_81(277) MCC_Dx_MultiPolar_82(278) MCC_Dx_MultiPolar_83(279) MCC_Dx_MultiPolar_84(280) MCC_Dx_MultiPolar_85(281) MCC_Dx_MultiPolar_86(282) MCC_Dx_MultiPolar_87(283) MCC_Dx_MultiPolar_88(284) MCC_Dx_MultiPolar_89(285) MCC_Dx_MultiPolar_90(286) MCC_Dx_MultiPolar_91(287) MCC_Dx_MultiPolar_92(288) MCC_Dx_MultiPolar_93(289) MCC_Dx_MultiPolar_94(290) MCC_Dx_MultiPolar_95(291) MCC_Dx_MultiPolar_96(292) MCC_Dx_UniPolar_1(500) MCC_Dx_UniPolar_2(501) MCC_Dx_UniPolar_3(502) MCC_Dx_UniPolar_4(503) MCC_Dx_UniPolar_5(504) MCC_Dx_UniPolar_6(505) MCC_Dx_UniPolar_7(506) MCC_Dx_UniPolar_8(507) MCC_Dx_UniPolar_9(508) MCC_Dx_UniPolar_10(509) MCC_Dx_UniPolar_11(510) MCC_Dx_UniPolar_12(511) MCC_Dx_UniPolar_13(512) MCC_Dx_UniPolar_14(513) MCC_Dx_UniPolar_15(514) MCC_Dx_UniPolar_16(515) MCC_Dx_UniPolar_18(517) MCC_Dx_UniPolar_19(518) MCC_Dx_UniPolar_20(519) MCC_Dx_UniPolar_21(520) MCC_Dx_UniPolar_22(521) MCC_Dx_UniPolar_23(522) MCC_Dx_UniPolar_24(523) MCC_Dx_UniPolar_25(524) MCC_Dx_UniPolar_26(525) MCC_Dx_UniPolar_27(526) MCC_Dx_UniPolar_28(527) MCC_Dx_UniPolar_29(528) MCC_Dx_UniPolar_30(529) MCC_Dx_UniPolar_31(530) MCC_Dx_UniPolar_32(531) MCC_Dx_UniPolar_33(532) MCC_Dx_UniPolar_34(533) MCC_Dx_UniPolar_35(534) MCC_Dx_UniPolar_36(535) MCC_Dx_UniPolar_37(536) MCC_Dx_UniPolar_38(537) 
-463 -520 -652 -712 -802 -851 -931 -962 -1020 -1058 -14 -9 119 139 77 -19 3 15 6 2 -8 -43 -16 15 33 49 -10 -59 54 -19 -35 6 44 112 97 79 15 29 59 100 84 10 31 38 93 94 -39 31 39 68 85 -97 5 28 48 62 -86 -1 36 39 16 60 70 54 1 3 8 9 4 7 -14 -21 -10 47 -2 0 -2 -27 -37 116 60 32 20 1 -22 11 22 16 24 13 -32 -121 -104 38 49 63 -37 -19 119 -82 -70 -43 63 -18 11 -9 -46 58 -15 223 -97 -151 -83 -85 5 426 229 28 -66 -83 -104 420 -31 84 16 125 -56 -19 202 915 144 127 568 -43 -180 -166 -320 -191 -187 -183 -149 -34 -183 0 88 449 1164 -44 131 428 -80 -199 -346 -288 -205 91 -288 -244 169 -227 314 180 -124 -125 
-486 -542 -673 -731 -816 -859 -922 -946 -1000 -1038 -7 12 126 144 76 -26 0 9 2 -3 -13 -53 -18 8 26 52 -27 -79 66 -12 -53 -1 31 97 91 72 12 15 46 90 79 4 22 29 79 86 -45 19 29 58 75 -101 -5 19 41 51 -91 -8 28 30 10 60 73 58 7 6 15 15 6 14 -3 -14 -8 53 5 3 1 -20 -31 117 62 37 27 10 -14 16 25 23 32 20 -20 -116 -95 44 53 54 -47 -21 116 -84 -72 -48 61 -17 10 -10 -46 56 -17 223 -93 -151 -81 -86 7 418 230 28 -66 -85 -106 421 -28 85 15 122 -59 59 278 982 214 204 643 24 -115 -117 -274 -158 -132 -132 -106 30 -126 0 162 525 1236 33 203 502 -10 -138 -299 -249 -176 146 -233 -199 233 -170 384 250 -60 -59 
-510 -565 -693 -749 -829 -868 -914 -932 -983 -1019 0 34 134 151 76 -32 -3 1 -1 -10 -16 -67 -31 -13 13 54 -44 -98 76 -5 -71 -2 26 82 90 76 9 7 40 85 76 -2 15 21 72 80 -51 11 23 51 65 -103 -11 7 32 42 -98 -14 22 24 0 66 77 59 17 12 13 24 13 22 3 -11 -7 58 9 6 6 -16 -32 119 68 46 31 11 -11 22 27 24 38 29 -13 -107 -83 54 57 47 -55 -21 111 -87 -73 -52 60 -14 11 -12 -46 51 -20 223 -89 -149 -80 -87 7 407 229 27 -67 -86 -107 416 -26 86 14 118 -61 158 370 1062 298 291 727 100 -45 -63 -228 -122 -73 -79 -54 99 -59 0 255 615 1317 127 289 585 69 -70 -249 -210 -141 206 -175 -148 303 -104 462 327 15 23 
-538 -592 -715 -768 -844 -877 -906 -914 -954 -986 9 59 143 159 74 -41 -8 -10 -5 -18 -24 -84 -37 -27 5 55 -63 -117 86 4 -90 -6 17 73 87 73 5 0 29 79 74 -8 8 10 65 68 -59 1 13 41 51 -109 -20 -2 17 25 -101 -25 13 13 -16 68 79 62 18 8 11 28 15 25 6 -8 -15 66 15 9 9 -15 -32 121 72 51 36 12 -13 27 35 31 45 38 -2 -96 -71 62 62 38 -65 -20 108 -88 -73 -57 57 -11 10 -15 -46 47 -25 220 -85 -146 -77 -87 7 393 224 26 -66 -86 -108 408 -23 88 11 114 -58 270 469 1145 391 382 814 178 27 -2 -182 -91 -12 -26 -4 170 11 0 358 709 1401 230 380 670 150 -1 -197 -175 -112 270 -117 -100 374 -36 543 406 96 110 
-562 -613 -728 -778 -846 -871 -877 -875 -904 -937 19 87 153 165 68 -54 -9 -23 -10 -27 -30 -99 -44 -28 11 54 -83 -137 96 15 -110 -4 16 68 92 81 3 -7 29 79 78 -10 1 10 63 66 -60 -6 10 36 47 -112 -25 -7 15 22 -104 -27 4 10 -15 77 83 60 21 9 6 32 19 26 7 -9 -21 68 18 10 12 -15 -34 124 71 54 37 16 -10 30 39 36 48 44 7 -83 -58 71 64 28 -76 -20 103 -89 -72 -61 54 -8 9 -17 -44 42 -28 215 -81 -142 -75 -88 6 377 217 25 -65 -83 -105 397 -24 87 8 108 -55 384 568 1226 484 473 897 257 100 63 -131 -63 55 28 42 243 79 0 461 803 1482 334 470 755 232 70 -137 -138 -91 335 -57 -53 446 32 624 486 175 197 
-572 -620 -725 -770 -828 -844 -824 -814 -840 -879 31 115 161 169 59 -72 -12 -34 -17 -37 -38 -113 -48 -36 11 52 -104 -156 104 26 -130 -11 8 52 86 78 1 -19 20 72 73 -16 -7 2 57 55 -66 -17 0 29 39 -117 -32 -15 5 12 -110 -33 -2 2 -23 73 84 57 25 11 5 35 19 29 11 -3 -22 73 23 12 12 -16 -32 124 71 57 43 20 -7 32 41 39 52 50 15 -70 -47 75 66 18 -84 -21 98 -88 -72 -64 48 -5 7 -17 -42 37 -29 208 -77 -137 -73 -85 7 357 210 25 -64 -80 -101 384 -22 84 7 104 -55 506 676 1315 586 574 992 349 185 135 -68 -25 132 93 99 327 159 0 571 906 1573 447 570 851 326 153 -68 -88 -58 412 17 6 530 111 714 578 267 294 
-578 -622 -718 -758 -804 -810 -765 -747 -766 -809 42 139 168 170 48 -90 -15 -39 -21 -47 -44 -125 -53 -49 4 49 -122 -170 109 37 -146 -14 2 44 80 79 -3 -27 15 67 72 -21 -14 -3 52 49 -73 -22 -5 25 31 -117 -39 -20 -2 8 -110 -38 -7 -2 -29 73 84 55 27 14 5 36 18 30 11 -4 -26 74 21 12 11 -15 -33 121 76 60 45 19 -5 34 41 41 56 57 20 -62 -40 76 68 11 -89 -21 91 -85 -70 -66 44 -3 7 -17 -41 31 -31 199 -73 -130 -68 -82 9 338 201 24 -62 -77 -99 367 -19 81 6 97 -54 627 787 1409 690 680 1093 446 278 213 2 25 215 165 167 417 247 0 684 1012 1668 561 675 951 426 242 6 -30 -12 493 98 73 619 197 810 675 364 395 
-587 -628 -715 -750 -784 -780 -707 -678 -683 -724 54 161 173 169 37 -107 -19 -49 -25 -60 -51 -140 -60 -63 0 43 -138 -181 112 47 -159 -16 -8 31 74 79 -6 -35 7 58 69 -25 -20 -12 42 43 -75 -30 -12 14 25 -120 -42 -32 -6 -2 -110 -42 -15 -8 -33 72 82 55 30 14 3 38 19 32 14 -1 -27 74 24 14 16 -12 -29 121 76 64 45 25 -2 35 44 45 61 61 30 -56 -33 77 67 7 -90 -20 85 -81 -69 -64 39 -3 7 -16 -38 27 -30 188 -66 -124 -63 -79 8 318 190 23 -58 -74 -95 349 -16 78 5 90 -51 736 887 1493 785 779 1184 536 365 287 67 70 292 233 231 502 327 0 786 1108 1753 666 771 1042 518 326 76 25 31 568 173 137 702 276 899 764 454 489 
-603 -640 -716 -745 -764 -748 -644 -602 -589 -626 66 179 178 166 25 -122 -23 -56 -32 -67 -56 -153 -66 -76 -6 37 -150 -187 112 56 -169 -20 -16 19 63 69 -8 -46 -3 48 62 -28 -28 -20 31 35 -77 -39 -17 5 17 -120 -49 -37 -12 -10 -112 -49 -20 -12 -41 70 82 52 30 15 8 36 17 35 17 1 -26 76 26 14 19 -7 -25 120 77 67 48 30 3 39 47 47 64 65 34 -49 -26 75 65 5 -91 -21 78 -77 -66 -63 35 -2 7 -16 -35 26 -30 179 -61 -116 -60 -74 9 297 178 21 -54 -70 -90 331 -15 73 4 84 -50 833 974 1562 866 863 1259 613 439 348 124 109 358 294 288 574 398 0 874 1191 1823 758 854 1118 598 399 136 72 68 631 239 193 771 346 972 839 531 571 
-619 -651 -715 -736 -742 -716 -582 -526 -492 -525 76 195 181 162 14 -136 -23 -60 -32 -67 -57 -151 -69 -90 -15 30 -159 -190 110 64 -174 -23 -19 9 57 60 -14 -48 -8 40 54 -34 -31 -23 28 26 -83 -39 -21 2 10 -121 -50 -42 -18 -13 -113 -48 -21 -13 -44 70 79 50 34 18 11 41 21 37 21 9 -20 76 27 18 22 -3 -19 119 81 71 49 30 6 37 45 46 68 74 44 -42 -21 72 62 4 -86 -20 72 -74 -60 -61 32 0 6 -15 -32 26 -28 167 -56 -109 -56 -69 9 274 166 19 -50 -66 -86 310 -14 70 2 77 -47 923 1054 1620 941 939 1325 683 505 401 174 148 415 351 342 638 465 0 956 1265 1881 843 929 1186 669 466 188 116 108 684 298 246 830 413 1037 905 602 647 
-634 -662 -716 -732 -725 -690 -534 -467 -416 -445 86 210 183 158 3 -149 -23 -64 -33 -72 -59 -151 -63 -85 -13 22 -166 -190 107 71 -178 -25 -24 -1 47 51 -13 -58 -12 35 49 -33 -35 -29 22 18 -80 -47 -22 -6 7 -118 -52 -45 -23 -17 -112 -49 -24 -16 -45 66 78 45 33 22 18 41 21 43 26 14 -17 78 31 19 26 -1 -11 118 80 75 53 36 11 41 46 48 69 78 49 -38 -16 70 60 3 -78 -18 67 -68 -56 -56 31 0 6 -15 -30 22 -27 155 -51 -100 -52 -65 9 251 154 17 -48 -60 -81 289 -11 65 1 69 -46 1020 1140 1684 1025 1021 1397 759 576 454 227 196 476 409 403 703 539 0 1046 1344 1945 938 1011 1258 747 537 242 164 158 738 359 306 892 485 1105 975 682 731 
-655 -680 -723 -734 -714 -668 -486 -410 -344 -373 96 227 185 154 -6 -161 -22 -68 -36 -79 -62 -169 -72 -103 -16 15 -174 -191 104 79 -182 -25 -31 -13 40 43 -16 -64 -17 23 42 -36 -42 -33 12 10 -82 -52 -27 -12 -2 -117 -54 -54 -27 -24 -110 -52 -33 -19 -51 65 74 41 37 21 19 41 21 43 27 16 -16 76 31 20 27 2 -10 116 81 78 51 35 14 40 46 49 70 79 52 -32 -12 64 58 3 -71 -16 61 -62 -51 -53 28 0 6 -14 -28 19 -25 144 -46 -92 -48 -60 9 230 141 15 -44 -56 -75 269 -10 60 0 62 -45 1115 1223 1744 1105 1099 1464 833 644 506 279 241 535 466 464 767 612 0 1133 1420 2005 1028 1090 1326 821 607 295 211 207 791 420 364 951 556 1169 1041 760 811 
-689 -711 -742 -745 -708 -649 -426 -335 -248 -276 106 243 186 150 -16 -173 -24 -71 -38 -84 -68 -188 -77 -111 -23 8 -183 -192 101 87 -187 -27 -36 -21 33 34 -15 -72 -24 11 37 -38 -46 -43 4 -3 -84 -58 -34 -24 -12 -118 -59 -61 -39 -39 -110 -58 -40 -30 -62 59 71 35 32 12 14 36 13 38 20 13 -27 74 27 15 24 -4 -12 112 78 77 50 36 8 40 48 48 70 79 56 -29 -12 58 53 3 -65 -16 55 -56 -48 -49 22 1 4 -13 -25 17 -23 132 -42 -82 -44 -54 9 209 129 11 -40 -51 -69 247 -9 54 1 56 -39 1177 1277 1778 1154 1151 1505 881 692 549 318 263 578 504 498 812 656 0 1188 1469 2038 1085 1140 1369 873 654 337 242 230 830 464 399 993 600 1210 1084 809 862 
-740 -758 -777 -774 -721 -649 -378 -267 -158 -183 114 259 188 148 -24 -183 -22 -73 -37 -81 -65 -201 -86 -106 -22 3 -192 -196 100 94 -194 -24 -38 -25 27 30 -12 -75 -29 7 31 -36 -50 -42 -8 -8 -85 -60 -36 -35 -16 -116 -61 -69 -40 -47 -109 -60 -45 -35 -67 54 65 28 24 6 6 35 12 36 23 10 -30 72 23 13 19 -8 -14 109 78 77 45 41 10 39 45 45 69 77 55 -26 -10 51 46 0 -62 -16 47 -51 -45 -44 18 2 4 -13 -23 15 -22 120 -37 -73 -39 -47 8 190 116 9 -35 -47 -61 227 -7 49 2 52 -30 1212 1308 1790 1175 1182 1526 906 722 585 346 264 608 523 503 841 673 0 1218 1495 2050 1115 1167 1391 904 679 372 257 224 857 494 411 1019 619 1234 1109 832 885 
-799 -815 -824 -816 -754 -673 -358 -224 -104 -133 123 278 192 148 -30 -191 -21 -68 -37 -76 -60 -202 -97 -104 -9 1 -202 -203 101 101 -203 -24 -39 -32 20 21 -11 -77 -33 -4 27 -34 -52 -47 -16 -16 -84 -64 -40 -43 -20 -113 -62 -70 -45 -57 -107 -61 -48 -39 -70 47 60 22 20 -4 2 31 7 32 18 5 -37 70 21 10 17 -10 -15 103 72 74 44 41 4 38 44 45 67 74 60 -24 -12 43 35 -2 -60 -16 41 -46 -39 -40 13 3 3 -12 -23 15 -20 109 -32 -66 -36 -39 7 169 103 8 -31 -44 -53 206 -4 44 2 49 -24 1247 1339 1801 1197 1213 1548 929 749 617 370 261 635 541 505 869 685 0 1248 1521 2061 1143 1193 1413 933 700 403 269 213 883 523 420 1043 638 1258 1134 854 905 
-850 -863 -863 -850 -781 -695 -344 -186 -63 -106 131 300 198 150 -34 -198 -23 -72 -37 -69 -53 -204 -100 -83 12 -2 -213 -210 103 108 -212 -24 -41 -36 13 19 -10 -77 -37 -9 22 -33 -53 -47 -23 -19 -82 -64 -41 -45 -24 -105 -62 -76 -44 -56 -103 -57 -51 -40 -67 41 55 19 18 -6 -3 29 6 30 21 5 -35 67 18 8 13 -9 -16 94 72 74 39 40 8 36 37 42 67 70 59 -22 -11 36 27 -3 -57 -14 35 -41 -35 -35 11 4 1 -11 -22 14 -18 97 -28 -59 -32 -33 6 151 94 6 -26 -40 -47 185 -2 40 2 44 -19 1290 1378 1819 1227 1249 1577 959 782 648 396 267 665 564 516 902 705 0 1287 1553 2079 1180 1225 1442 968 728 434 286 212 909 555 437 1072 663 1287 1163 883 932 
-890 -899 -888 -870 -798 -708 -327 -149 -25 -97 140 325 208 155 -36 -204 -19 -67 -33 -56 -44 -186 -100 -86 48 -6 -224 -217 105 116 -221 -20 -43 -41 8 12 -8 -81 -38 -13 20 -30 -53 -49 -30 -21 -79 -61 -44 -51 -22 -99 -65 -76 -45 -59 -102 -58 -51 -43 -67 36 48 10 13 -10 -2 27 5 33 22 5 -36 63 14 6 11 -11 -13 89 71 67 35 41 4 35 31 38 62 64 56 -22 -12 30 22 -5 -52 -12 30 -36 -31 -30 10 6 -1 -11 -22 15 -17 87 -23 -52 -28 -28 6 136 82 4 -21 -37 -42 167 1 38 1 40 -18 1336 1421 1845 1261 1290 1611 993 819 680 424 278 698 592 533 939 733 0 1330 1590 2104 1220 1261 1473 1007 760 466 305 219 940 589 460 1104 693 1321 1196 917 965 
-930 -937 -916 -896 -823 -732 -328 -137 -13 -138 150 351 218 162 -37 -209 -21 -65 -30 -46 -38 -175 -90 -49 125 -11 -234 -222 105 123 -228 -21 -45 -52 3 6 -8 -84 -42 -22 11 -28 -58 -52 -37 -29 -78 -64 -45 -57 -29 -95 -65 -80 -45 -64 -97 -59 -54 -45 -69 29 42 4 13 -13 -8 23 3 29 20 4 -35 59 9 3 9 -11 -12 82 67 64 29 40 5 31 30 36 61 60 55 -22 -14 22 17 -4 -48 -9 26 -31 -27 -26 8 5 -2 -10 -21 15 -15 77 -19 -47 -25 -22 4 120 71 3 -17 -35 -38 149 4 35 3 37 -14 1371 1453 1861 1286 1323 1638 1019 848 709 446 283 724 613 545 969 753 0 1363 1618 2121 1250 1288 1497 1037 784 493 319 220 966 618 476 1132 716 1349 1223 943 989 
-967 -970 -943 -921 -852 -762 -336 -137 -36 -250 160 374 229 169 -37 -213 -19 -59 -25 -26 -25 -167 -82 5 209 -18 -243 -224 103 131 -233 -22 -46 -50 -2 -5 -10 -80 -45 -22 3 -32 -55 -53 -35 -36 -76 -62 -46 -54 -33 -92 -62 -73 -53 -63 -91 -57 -53 -43 -71 23 35 1 7 -15 -7 20 -2 24 16 2 -36 52 8 2 6 -12 -10 75 60 59 32 33 3 27 27 33 52 62 54 -23 -16 15 11 -6 -41 -8 22 -26 -24 -21 6 4 -3 -9 -19 13 -13 68 -16 -40 -23 -18 3 107 62 2 -15 -31 -32 133 6 31 4 34 -9 1394 1475 1869 1301 1346 1656 1036 870 734 465 284 746 626 547 991 764 0 1385 1637 2130 1270 1306 1514 1061 802 517 329 216 986 640 485 1153 730 1369 1243 960 1003 
-995 -997 -969 -949 -893 -807 -363 -157 -99 -402 169 392 238 175 -37 -216 -14 -38 -12 1 -8 -133 -72 32 208 -25 -251 -225 100 138 -238 -21 -49 -55 -6 -6 -9 -82 -44 -28 -2 -29 -58 -52 -40 -39 -73 -64 -45 -59 -36 -87 -63 -74 -53 -63 -90 -56 -56 -42 -73 16 28 -5 6 -16 -11 17 -3 22 14 1 -35 48 4 -1 4 -14 -13 66 54 53 24 30 3 25 22 30 48 58 47 -24 -18 10 5 -6 -34 -7 18 -22 -20 -19 5 3 -3 -8 -16 9 -11 60 -15 -35 -19 -17 2 93 56 3 -14 -26 -26 118 7 28 5 29 -6 1421 1503 1883 1320 1375 1681 1060 898 764 489 290 775 642 552 1018 778 0 1411 1662 2146 1293 1331 1539 1090 826 547 345 217 1010 665 496 1180 749 1396 1270 981 1022 
-1024 -1027 -1005 -992 -957 -887 -461 -258 -257 -586 177 406 245 179 -37 -219 -11 -28 -5 31 24 -27 -32 137 140 -33 -258 -224 96 145 -241 -27 -53 -62 -16 -16 -14 -84 -51 -36 -11 -34 -60 -56 -45 -48 -72 -67 -50 -62 -42 -83 -66 -74 -57 -67 -86 -59 -56 -45 -71 11 25 -6 5 -16 -11 15 -7 19 14 5 -32 43 5 -1 3 -14 -8 59 50 50 24 28 3 24 21 27 45 56 52 -26 -20 4 0 -5 -29 -7 16 -19 -17 -15 5 2 -2 -7 -14 8 -11 51 -13 -30 -17 -14 3 81 48 3 -13 -21 -23 104 9 24 7 25 -1 1444 1527 1894 1338 1401 1704 1082 925 796 515 298 804 660 560 1045 793 0 1433 1683 2159 1315 1353 1560 1118 849 576 361 219 1035 692 510 1207 768 1421 1295 1001 1040 
-1053 -1058 -1042 -1036 -1030 -987 -638 -456 -569 -859 185 420 252 183 -40 -224 -9 -14 5 60 52 88 0 284 82 -41 -264 -223 91 152 -243 -30 -53 -65 -21 -30 -15 -85 -52 -41 -20 -32 -63 -58 -46 -55 -70 -67 -51 -59 -48 -81 -62 -74 -59 -67 -84 -56 -55 -45 -72 6 22 -10 3 -17 -6 13 -6 17 11 6 -29 40 3 -2 3 -10 -3 53 42 48 25 24 5 22 19 25 44 57 52 -27 -21 -1 -3 -2 -20 -7 12 -15 -13 -11 3 0 -2 -5 -12 7 -8 43 -11 -24 -14 -11 2 70 40 2 -11 -17 -18 89 11 21 7 21 0 1450 1533 1887 1339 1411 1709 1091 940 814 532 302 820 669 563 1058 799 0 1438 1686 2152 1322 1359 1564 1132 860 596 372 221 1046 708 517 1218 777 1430 1304 1008 1046 
-1081 -1087 -1079 -1081 -1109 -1101 -881 -739 -997 -1205 195 437 262 188 -44 -231 -2 2 22 93 90 254 66 325 -83 -50 -270 -220 85 160 -245 -29 -55 -71 -27 -32 -18 -83 -54 -48 -24 -34 -62 -56 -53 -57 -68 -66 -49 -64 -47 -74 -62 -74 -56 -66 -78 -56 -54 -46 -67 3 14 -13 3 -18 -8 9 -7 15 13 8 -25 35 2 -3 2 -9 0 46 41 44 19 27 8 20 16 24 43 52 50 -28 -22 -6 -7 1 -11 -6 10 -12 -9 -6 4 0 -2 -3 -10 5 -5 34 -9 -19 -11 -8 1 60 33 1 -9 -13 -13 74 12 18 8 18 1 1451 1535 1874 1337 1416 1708 1095 949 823 542 304 829 673 563 1065 801 0 1438 1683 2139 1325 1360 1562 1140 867 608 379 221 1049 718 521 1222 782 1432 1306 1011 1047 
-1110 -1121 -1127 -1143 -1207 -1235 -1170 -1081 -1375 -1460 207 457 275 195 -47 -240 3 27 34 116 103 356 107 131 -177 -59 -275 -215 78 167 -245 -32 -56 -70 -31 -45 -19 -81 -55 -50 -29 -36 -59 -57 -52 -62 -65 -65 -50 -60 -52 -70 -59 -69 -60 -63 -73 -54 -51 -43 -66 -4 9 -16 0 -20 -3 8 -9 15 12 9 -23 30 2 -3 2 -6 4 38 34 40 20 21 9 19 16 22 38 53 50 -28 -25 -12 -10 3 -4 -6 9 -8 -7 -2 4 0 -1 -2 -9 6 -3 27 -7 -16 -9 -7 1 51 27 1 -6 -10 -10 62 12 16 6 16 1 1459 1542 1869 1341 1426 1713 1103 962 835 555 308 842 682 565 1077 806 0 1444 1687 2134 1331 1367 1566 1152 876 622 388 223 1058 731 528 1230 790 1440 1314 1019 1051 
-1153 -1171 -1196 -1227 -1322 -1373 -1420 -1379 -1537 -1529 219 478 288 203 -50 -248 13 39 43 119 101 346 126 -47 -156 -69 -280 -211 71 175 -246 -33 -55 -72 -35 -50 -21 -79 -55 -52 -36 -35 -62 -56 -50 -63 -64 -65 -49 -61 -50 -66 -58 -68 -57 -62 -71 -55 -51 -43 -65 -7 4 -20 -3 -19 -6 7 -9 8 6 9 -19 26 -1 -7 2 -9 5 31 27 35 16 21 9 17 13 18 34 48 45 -31 -27 -16 -12 4 3 -4 9 -6 -5 0 3 -2 -1 -2 -6 6 0 21 -6 -13 -8 -4 0 44 23 1 -5 -6 -7 51 12 14 6 14 3 1464 1549 1866 1345 1437 1720 1111 975 852 569 313 858 691 566 1090 811 0 1451 1692 2131 1337 1374 1573 1165 888 639 399 226 1069 746 535 1241 798 1451 1325 1026 1056 
-1209 -1233 -1271 -1313 -1419 -1473 -1551 -1541 -1512 -1519 231 501 300 210 -54 -256 14 38 41 98 76 309 142 -157 -55 -78 -286 -208 65 182 -247 -34 -58 -71 -42 -56 -22 -81 -55 -55 -42 -37 -61 -55 -52 -70 -62 -62 -51 -60 -51 -65 -58 -66 -56 -60 -71 -52 -53 -44 -61 -10 2 -21 -6 -19 -6 5 -12 7 6 10 -17 20 -3 -7 0 -9 10 26 22 27 11 16 7 15 11 19 30 44 42 -31 -29 -20 -17 8 9 -4 7 -3 -2 2 4 -4 -2 0 -5 5 0 16 -5 -9 -6 -3 0 36 18 1 -4 -4 -4 40 13 13 7 11 6 1462 1547 1855 1340 1441 1722 1114 985 869 582 316 871 696 564 1100 809 0 1448 1689 2120 1335 1372 1573 1173 894 655 407 226 1078 757 537 1250 801 1458 1330 1027 1054 
-1260 -1286 -1326 -1370 -1471 -1512 -1571 -1571 -1429 -1527 241 528 311 216 -59 -263 13 33 34 78 53 251 97 -177 27 -84 -295 -210 63 189 -252 -37 -58 -75 -40 -65 -27 -78 -57 -57 -46 -40 -61 -54 -51 -71 -61 -62 -50 -58 -52 -61 -56 -63 -57 -62 -64 -54 -52 -41 -62 -12 -2 -22 -3 -20 -1 4 -9 7 9 15 -10 19 -1 -6 0 -7 13 21 20 27 15 18 7 16 13 18 26 43 42 -32 -31 -23 -18 11 16 -3 6 0 -1 5 3 -7 -1 0 -3 3 2 9 -4 -7 -4 -1 -2 30 14 1 -2 -2 0 29 12 9 8 10 7 1455 1540 1838 1332 1441 1717 1113 991 881 592 319 880 697 562 1106 807 0 1441 1680 2102 1329 1368 1569 1176 897 669 415 228 1083 766 539 1254 801 1458 1331 1025 1050 
-1287 -1312 -1345 -1384 -1468 -1491 -1524 -1510 -1354 -1529 250 556 322 222 -63 -270 8 17 20 37 28 212 87 -100 27 -89 -304 -215 63 197 -260 -37 -58 -76 -46 -66 -25 -76 -59 -59 -48 -38 -59 -55 -55 -68 -57 -59 -49 -60 -50 -55 -58 -59 -53 -57 -62 -51 -49 -42 -57 -12 -1 -20 -3 -15 2 5 -9 7 11 16 -3 18 -1 -2 5 0 19 21 22 23 14 21 13 17 11 20 28 41 41 -31 -30 -27 -17 11 24 -2 5 2 1 8 3 -7 0 1 -2 4 4 4 -2 -5 -3 0 -2 24 8 1 -1 0 0 20 10 6 7 8 8 1454 1538 1822 1329 1443 1710 1117 999 890 602 326 888 704 565 1111 814 0 1439 1674 2084 1331 1368 1563 1181 904 680 424 237 1086 776 547 1256 809 1457 1332 1030 1052 
-1285 -1305 -1324 -1353 -1409 -1414 -1430 -1404 -1339 -1487 260 584 330 225 -70 -277 3 2 7 3 10 172 80 87 -130 -94 -315 -221 64 204 -268 -37 -59 -76 -53 -69 -28 -73 -57 -64 -53 -39 -57 -56 -54 -71 -53 -59 -50 -57 -51 -52 -54 -58 -53 -55 -56 -49 -49 -39 -55 -14 -5 -18 0 -10 6 5 -6 10 11 21 3 18 3 0 7 4 25 18 18 23 16 20 17 18 14 18 27 43 42 -30 -29 -28 -16 15 29 -1 6 3 3 11 5 -8 0 3 0 5 6 0 -3 -3 -1 2 -2 17 3 2 0 1 1 11 7 2 6 5 7 1458 1538 1805 1331 1444 1701 1122 1007 895 613 339 894 714 576 1115 825 0 1441 1669 2064 1337 1370 1557 1186 913 689 436 251 1085 787 559 1255 819 1453 1332 1036 1059 
-1269 -1285 -1284 -1300 -1322 -1311 -1317 -1295 -1397 -1390 269 609 335 223 -81 -286 -2 -16 -8 -26 -5 143 79 211 -296 -100 -325 -226 64 212 -275 -37 -59 -75 -54 -75 -27 -71 -59 -62 -56 -40 -60 -54 -52 -73 -53 -58 -48 -54 -53 -48 -52 -55 -55 -52 -52 -48 -47 -38 -56 -15 -5 -17 0 -9 10 3 -4 8 12 22 4 14 -1 2 9 7 27 14 18 25 17 19 19 20 16 19 28 45 43 -28 -27 -29 -17 20 34 0 5 4 5 13 6 -9 1 3 1 6 8 -3 -3 -1 0 2 -1 13 0 2 1 3 2 4 4 -1 5 2 5 1457 1533 1785 1327 1441 1688 1123 1012 896 622 350 898 721 585 1115 830 0 1439 1659 2041 1338 1367 1547 1188 920 695 447 264 1080 793 568 1249 826 1444 1328 1038 1061 
-1260 -1269 -1246 -1246 -1238 -1216 -1215 -1204 -1435 -1255 277 629 336 217 -94 -295 -8 -36 -21 -48 -11 127 85 194 -322 -105 -333 -230 63 218 -282 -36 -58 -73 -52 -76 -28 -68 -56 -63 -56 -39 -56 -51 -52 -71 -51 -55 -45 -54 -50 -48 -48 -54 -52 -53 -50 -45 -45 -36 -52 -14 -6 -17 0 -10 11 0 -5 7 12 23 8 14 -3 2 9 7 29 13 15 23 13 17 14 17 14 14 26 42 43 -28 -27 -29 -15 22 39 1 4 6 6 15 6 -10 1 4 3 5 10 -7 -2 1 0 1 -1 9 -1 1 2 6 5 -2 1 -3 4 0 6 1453 1527 1766 1322 1440 1677 1124 1017 903 633 359 905 726 590 1117 835 0 1435 1649 2018 1337 1364 1540 1192 926 706 458 275 1078 800 575 1246 831 1438 1324 1040 1063 
-1253 -1254 -1205 -1190 -1157 -1128 -1129 -1133 -1407 -1153 282 645 335 208 -108 -303 -14 -53 -31 -60 -14 111 87 233 -286 -108 -340 -233 63 223 -287 -33 -54 -71 -52 -74 -27 -64 -53 -60 -55 -35 -53 -49 -51 -68 -45 -52 -44 -50 -49 -40 -46 -50 -49 -48 -43 -45 -43 -33 -49 -14 -8 -17 0 -7 12 -2 -2 8 12 21 9 13 -2 2 8 9 29 10 14 20 13 14 15 20 15 13 25 41 40 -27 -26 -29 -16 21 43 2 5 7 7 17 5 -10 1 5 3 5 11 -10 -1 3 1 2 -3 6 -4 0 2 8 8 -8 0 -5 4 0 5 1454 1526 1752 1322 1443 1672 1129 1026 913 645 367 916 733 594 1123 841 0 1435 1644 2002 1340 1364 1537 1199 934 721 469 285 1082 811 584 1249 839 1438 1326 1045 1067 
-1233 -1224 -1153 -1124 -1076 -1045 -1052 -1077 -1351 -1140 287 657 331 197 -122 -311 -18 -57 -35 -58 -10 102 114 127 -119 -110 -346 -237 64 227 -291 -31 -50 -68 -52 -71 -24 -60 -49 -60 -53 -33 -49 -47 -47 -65 -39 -50 -40 -48 -44 -37 -44 -47 -44 -46 -39 -41 -40 -33 -45 -13 -7 -17 3 -5 14 3 -1 9 12 24 13 11 0 3 10 10 32 12 14 20 13 18 17 18 13 13 25 36 37 -25 -25 -29 -14 23 44 2 4 9 8 17 4 -9 0 4 3 5 11 -10 -2 4 2 3 -2 2 -7 1 3 8 8 -12 0 -6 3 -1 5 1460 1529 1740 1324 1446 1667 1133 1034 921 655 374 923 740 602 1129 849 0 1439 1643 1987 1346 1366 1533 1205 941 731 478 294 1084 821 592 1250 847 1437 1328 1052 1072 
-1185 -1170 -1085 -1050 -995 -966 -986 -1059 -1231 -1146 291 665 325 186 -134 -316 -19 -51 -33 -53 -4 111 176 -131 15 -111 -350 -239 64 230 -295 -28 -49 -62 -51 -76 -22 -59 -48 -56 -52 -34 -46 -44 -44 -64 -37 -46 -38 -44 -43 -34 -38 -43 -42 -43 -35 -36 -37 -29 -41 -11 -5 -14 0 -5 19 7 -2 11 15 29 17 12 6 7 13 14 39 11 14 21 16 19 19 19 16 15 26 41 41 -22 -23 -28 -13 25 45 3 3 10 8 18 6 -8 0 4 3 6 12 -11 -2 5 2 4 -2 -1 -9 1 4 7 8 -14 -3 -9 2 -2 4 1469 1533 1727 1327 1450 1660 1139 1042 925 664 385 928 749 612 1133 858 0 1446 1642 1972 1354 1370 1529 1212 950 739 488 307 1083 830 603 1248 857 1433 1328 1061 1080 
-1119 -1099 -1009 -970 -915 -892 -940 -1077 -1072 -1073 294 670 320 176 -143 -319 -20 -47 -33 -44 3 129 182 -154 -60 -112 -352 -238 63 232 -295 -32 -50 -64 -52 -74 -24 -54 -48 -58 -54 -30 -44 -42 -46 -62 -34 -44 -35 -45 -42 -28 -37 -41 -41 -40 -31 -36 -34 -29 -39 -12 -5 -11 7 1 21 10 2 12 18 29 20 13 7 9 16 17 37 9 15 22 16 20 22 23 17 17 27 40 40 -18 -21 -28 -13 26 48 4 2 12 10 19 5 -9 3 5 5 4 14 -13 -2 6 2 5 -3 -2 -11 0 5 8 8 -19 -6 -11 0 -4 2 1477 1533 1711 1330 1451 1649 1145 1048 926 673 399 932 757 625 1135 870 0 1450 1636 1951 1362 1374 1522 1217 960 746 502 326 1078 839 617 1242 870 1425 1325 1071 1089 
-1053 -1028 -932 -890 -836 -820 -913 -1078 -1031 -994 296 671 314 167 -150 -318 -21 -48 -28 -38 15 162 126 1 -85 -115 -351 -234 59 234 -293 -32 -50 -63 -54 -79 -26 -55 -48 -60 -55 -32 -43 -41 -47 -64 -35 -42 -36 -45 -41 -27 -37 -40 -41 -40 -30 -34 -33 -30 -38 -11 -5 -12 5 -2 22 9 1 12 20 31 21 12 9 11 15 18 41 9 17 22 18 22 22 21 18 19 28 37 40 -17 -20 -28 -10 27 51 4 2 13 11 19 6 -8 2 5 4 5 15 -15 -1 6 3 6 -2 -4 -14 0 6 10 9 -23 -9 -11 -1 -5 1 1472 1525 1685 1323 1444 1628 1143 1049 923 680 411 933 762 633 1131 877 0 1444 1621 1919 1360 1367 1505 1214 962 750 512 342 1068 844 625 1230 876 1411 1314 1072 1090 
-993 -962 -857 -812 -759 -755 -901 -1036 -1071 -974 297 665 310 159 -154 -316 -23 -42 -28 -26 22 180 64 -68 -63 -119 -348 -227 53 234 -288 -30 -47 -61 -51 -75 -24 -52 -45 -59 -51 -26 -41 -42 -46 -59 -31 -40 -34 -43 -40 -23 -31 -40 -38 -37 -28 -29 -34 -27 -32 -11 -5 -11 5 -4 20 8 3 13 17 30 22 14 8 9 17 20 39 7 14 22 16 21 23 22 18 18 25 36 41 -16 -20 -29 -9 26 52 3 3 13 11 21 6 -6 1 6 5 7 17 -17 -1 8 3 7 -3 -5 -16 0 7 11 10 -27 -10 -13 -1 -6 0 1457 1508 1652 1308 1429 1601 1133 1043 916 681 416 928 762 632 1121 875 0 1427 1598 1880 1348 1351 1482 1205 958 750 517 349 1054 843 628 1213 873 1390 1297 1064 1081 
-937 -902 -791 -743 -696 -702 -891 -975 -1016 -919 298 656 305 153 -155 -311 -18 -35 -21 -15 27 167 16 -97 -32 -124 -342 -218 46 234 -280 -29 -45 -58 -50 -77 -21 -51 -43 -54 -52 -27 -39 -37 -41 -62 -27 -41 -30 -41 -39 -19 -30 -35 -38 -36 -22 -27 -30 -28 -33 -14 -6 -11 3 -3 23 10 1 11 18 31 22 11 11 10 16 17 39 4 14 22 19 19 22 20 18 19 25 34 38 -17 -20 -28 -10 26 52 5 2 13 11 22 7 -7 2 7 4 7 15 -18 -1 8 4 8 -2 -5 -15 0 8 10 11 -27 -11 -15 -1 -6 0 1442 1491 1622 1292 1414 1577 1123 1037 908 681 416 921 758 628 1111 869 0 1413 1576 1847 1335 1336 1461 1195 952 748 517 351 1040 841 627 1197 868 1369 1281 1055 1071 
-883 -845 -733 -686 -647 -662 -871 -921 -913 -828 299 646 301 147 -155 -306 -19 -25 -16 -3 35 150 -5 -75 -52 -129 -336 -206 38 233 -271 -24 -43 -54 -47 -72 -18 -46 -40 -53 -47 -24 -34 -37 -39 -55 -23 -36 -29 -38 -36 -16 -26 -33 -37 -31 -19 -23 -26 -26 -31 -14 -7 -10 4 -3 23 10 1 13 15 29 22 10 11 9 16 17 36 4 13 22 18 18 22 19 16 19 24 34 34 -17 -19 -27 -11 25 52 7 0 14 10 23 5 -7 2 6 5 6 15 -16 -3 9 5 8 -1 -5 -16 0 6 11 10 -27 -12 -16 -1 -6 0 1433 1480 1599 1280 1404 1559 1117 1035 905 683 417 919 755 625 1103 865 0 1405 1562 1821 1327 1327 1445 1191 950 749 520 355 1030 841 628 1185 866 1354 1270 1051 1065 
-825 -785 -674 -630 -598 -624 -838 -873 -874 -765 299 636 296 141 -154 -299 -18 -18 -10 3 37 121 -21 -11 -81 -134 -328 -194 30 231 -261 -22 -40 -51 -44 -68 -17 -41 -39 -48 -45 -22 -33 -34 -35 -51 -21 -32 -27 -35 -32 -14 -21 -29 -33 -29 -16 -20 -23 -24 -25 -14 -9 -9 3 -2 22 11 3 11 16 29 25 8 11 11 17 19 37 3 11 21 19 17 20 17 17 19 24 32 36 -16 -19 -26 -11 23 51 7 0 14 11 22 5 -6 2 6 6 4 15 -16 -2 10 4 8 -2 -5 -14 -1 5 12 11 -27 -12 -15 -3 -5 -1 1430 1475 1580 1274 1400 1546 1115 1036 904 687 422 921 756 626 1100 866 0 1402 1552 1799 1323 1322 1435 1191 953 753 525 363 1024 845 632 1176 869 1344 1262 1051 1063 
-762 -719 -609 -566 -541 -578 -784 -813 -863 -718 298 624 289 134 -154 -291 -17 -10 -5 16 49 66 -26 -4 -60 -138 -321 -183 22 230 -252 -19 -36 -47 -42 -62 -15 -39 -34 -44 -40 -17 -32 -27 -34 -45 -17 -31 -21 -33 -26 -11 -19 -26 -30 -27 -11 -17 -22 -20 -22 -14 -9 -10 2 0 20 7 3 10 16 28 24 8 11 10 16 18 36 1 9 21 16 17 18 14 15 18 20 29 33 -15 -18 -24 -11 23 48 6 0 12 12 21 6 -4 1 6 5 4 14 -16 -2 9 4 8 -2 -6 -14 -2 5 11 11 -26 -12 -15 -3 -5 -3 1429 1474 1563 1271 1399 1535 1117 1040 903 693 429 923 761 631 1100 870 0 1400 1545 1780 1323 1320 1427 1193 958 759 532 371 1019 851 639 1170 876 1336 1257 1053 1065 
-697 -651 -540 -499 -485 -541 -717 -747 -809 -664 296 612 281 123 -155 -285 -17 -6 -1 32 66 13 -18 -41 -19 -142 -315 -172 15 229 -244 -17 -34 -44 -36 -61 -13 -36 -31 -41 -37 -16 -26 -25 -33 -41 -16 -26 -19 -30 -23 -6 -16 -24 -26 -24 -6 -15 -17 -18 -20 -16 -10 -9 3 -3 19 5 0 9 15 26 23 6 9 8 14 16 34 -2 8 18 13 16 15 12 14 15 20 27 31 -15 -17 -23 -11 21 45 5 0 12 12 20 6 -3 0 7 4 4 14 -15 -2 10 3 9 -3 -5 -13 -2 5 11 11 -23 -12 -15 -2 -5 -3 1425 1472 1549 1266 1398 1526 1119 1043 906 699 436 927 765 634 1101 873 0 1397 1539 1765 1321 1317 1420 1197 961 766 540 379 1016 858 646 1167 881 1330 1254 1055 1065 
-630 -580 -468 -429 -432 -510 -651 -687 -715 -601 293 598 269 111 -158 -280 -17 -1 4 46 67 -20 -24 -65 18 -145 -309 -163 9 227 -236 -12 -31 -41 -35 -54 -8 -32 -28 -38 -32 -11 -26 -22 -29 -35 -11 -25 -16 -26 -19 -2 -14 -20 -23 -21 -7 -9 -13 -17 -17 -17 -13 -11 1 -3 18 5 2 8 13 25 22 4 6 7 12 14 30 -3 6 17 14 16 15 11 8 14 18 23 27 -16 -18 -22 -11 19 42 5 -1 12 10 19 6 -2 0 7 2 4 13 -14 -1 10 3 8 -3 -4 -13 -2 5 10 11 -20 -10 -12 -2 -5 -3 1416 1466 1534 1256 1395 1518 1116 1044 906 702 438 928 765 631 1100 870 0 1390 1530 1750 1313 1311 1411 1197 960 770 543 381 1011 861 647 1162 880 1324 1249 1052 1059 
-565 -512 -401 -365 -389 -480 -595 -630 -625 -542 290 582 257 98 -161 -274 -16 7 13 64 67 -51 -34 -62 32 -147 -301 -154 3 224 -227 -12 -29 -36 -32 -51 -8 -27 -24 -36 -31 -10 -19 -20 -25 -34 -8 -19 -12 -24 -16 0 -9 -18 -20 -19 0 -8 -12 -14 -15 -17 -13 -10 2 -1 16 3 0 8 12 25 21 3 7 7 13 14 30 -4 5 16 11 15 14 8 10 12 15 20 24 -16 -20 -22 -10 17 38 6 0 12 9 19 7 -3 0 5 2 4 11 -11 -2 9 3 7 -4 -4 -12 -1 4 9 10 -20 -7 -11 -3 -4 -2 1408 1459 1518 1247 1389 1509 1110 1042 904 701 437 926 762 627 1096 866 0 1384 1521 1732 1303 1304 1400 1194 957 770 542 380 1004 860 646 1153 877 1315 1242 1048 1051 
-504 -452 -346 -319 -366 -458 -555 -586 -570 -498 284 566 247 89 -159 -265 -8 22 23 80 41 -65 -27 -67 34 -148 -291 -143 -3 220 -217 -11 -28 -36 -32 -48 -7 -28 -23 -35 -28 -9 -21 -16 -27 -30 -7 -19 -14 -21 -14 2 -11 -16 -20 -16 0 -7 -12 -14 -14 -16 -12 -11 1 -2 16 4 0 8 15 23 18 1 5 7 10 15 29 -2 7 16 15 16 14 9 9 13 14 22 25 -16 -21 -21 -9 16 35 6 0 12 8 17 6 -3 0 4 2 4 11 -9 -2 9 2 6 -3 -3 -10 -2 3 8 9 -18 -8 -10 -2 -4 -2 1398 1449 1498 1237 1381 1493 1103 1038 899 700 436 922 759 623 1088 862 0 1375 1509 1710 1293 1294 1387 1189 954 769 542 380 994 858 645 1143 874 1303 1231 1043 1044 
-443 -392 -298 -281 -352 -431 -516 -546 -529 -459 278 549 238 84 -154 -253 -3 31 28 90 14 -79 -38 -52 51 -148 -278 -130 -9 213 -204 -9 -28 -34 -31 -47 -6 -26 -23 -33 -30 -9 -20 -16 -24 -30 -8 -17 -14 -20 -14 4 -8 -17 -15 -16 0 -5 -12 -14 -12 -17 -15 -12 -2 -3 12 3 -1 6 12 21 18 1 4 6 10 13 26 -8 3 15 11 17 14 9 7 10 14 16 21 -15 -20 -20 -10 16 33 5 0 11 8 17 6 -3 0 5 1 5 11 -9 -1 7 2 6 -4 -1 -10 -1 3 8 9 -17 -9 -9 -2 -3 -2 1379 1430 1470 1217 1365 1469 1090 1029 890 696 434 914 753 616 1076 852 0 1356 1487 1679 1275 1276 1365 1176 944 765 541 379 979 853 641 1126 866 1283 1214 1030 1029 
-379 -331 -250 -242 -330 -387 -455 -486 -471 -405 270 530 230 80 -147 -241 4 45 34 78 -9 -111 -30 -46 45 -147 -264 -118 -15 206 -191 -9 -28 -30 -34 -46 -5 -24 -22 -34 -30 -8 -19 -15 -24 -29 -5 -16 -11 -22 -13 4 -7 -16 -16 -15 2 -4 -13 -11 -9 -19 -17 -13 -5 -5 11 -1 -4 2 9 19 16 -4 2 4 9 10 24 -6 2 14 8 17 13 4 4 8 9 15 21 -17 -22 -21 -11 15 31 5 0 11 8 17 6 -4 0 5 0 5 10 -9 -1 6 2 7 -3 0 -8 -1 3 6 8 -16 -7 -10 0 -2 -2 1347 1401 1435 1187 1341 1441 1069 1013 877 688 425 900 740 599 1059 832 0 1327 1456 1642 1244 1250 1337 1157 927 756 533 370 961 843 629 1105 849 1257 1190 1008 1003 
-319 -275 -208 -210 -302 -340 -385 -411 -397 -334 264 511 223 74 -142 -229 9 57 43 63 -26 -110 -51 -38 48 -145 -250 -105 -20 198 -178 -10 -24 -29 -32 -46 -4 -24 -21 -32 -30 -8 -16 -14 -23 -29 -3 -17 -10 -18 -13 6 -6 -14 -14 -15 2 -3 -8 -10 -12 -20 -15 -14 -6 -6 11 -2 -6 2 9 17 15 -3 3 1 6 10 25 -10 -2 12 7 12 10 5 1 5 9 14 19 -18 -24 -21 -13 15 31 4 0 10 7 17 4 -4 0 5 0 4 11 -7 -2 7 1 8 -3 2 -6 -3 3 6 8 -15 -5 -7 0 -1 -1 1311 1370 1398 1154 1314 1411 1045 994 860 676 412 883 722 578 1038 807 0 1294 1424 1603 1210 1221 1307 1136 907 744 523 358 938 829 613 1081 828 1231 1163 983 974 
-268 -229 -178 -192 -274 -301 -338 -353 -331 -266 257 491 217 70 -136 -217 14 71 46 38 -28 -94 -49 -61 47 -143 -236 -93 -25 189 -164 -10 -22 -26 -30 -45 -5 -21 -20 -28 -31 -7 -16 -12 -19 -31 -2 -14 -9 -15 -14 7 -4 -9 -16 -12 3 0 -8 -10 -9 -20 -16 -14 -7 -5 10 -2 -3 2 9 18 17 -4 1 3 6 8 24 -10 -1 10 9 10 12 5 1 6 7 13 17 -18 -22 -19 -14 16 30 4 1 9 8 15 5 -4 1 5 1 4 10 -6 -3 6 2 6 -3 2 -5 -2 2 5 8 -14 -5 -7 0 -2 -1 1283 1344 1363 1128 1290 1381 1025 978 844 666 406 867 708 565 1018 789 0 1268 1396 1566 1186 1197 1279 1117 892 733 516 354 915 816 602 1057 814 1204 1139 963 953 
-224 -190 -157 -178 -245 -267 -313 -324 -280 -213 249 475 215 70 -127 -203 20 77 43 18 -31 -89 -31 -66 40 -140 -221 -82 -29 180 -151 -9 -21 -25 -30 -43 -4 -21 -17 -32 -25 -5 -16 -12 -22 -25 -1 -13 -8 -17 -11 10 -5 -11 -12 -13 5 0 -9 -10 -9 -17 -13 -14 -5 -6 11 -3 -3 2 7 16 16 -3 1 3 7 10 25 -9 2 9 6 12 8 6 0 6 9 12 17 -18 -20 -18 -12 16 30 5 2 8 7 15 6 -5 0 6 1 4 10 -5 -3 5 2 5 -2 3 -5 -1 1 5 7 -14 -6 -8 -1 -1 -1 1261 1321 1330 1108 1269 1352 1010 965 828 659 406 853 699 559 999 780 0 1248 1370 1529 1168 1176 1252 1101 881 723 513 357 893 805 598 1032 805 1177 1117 950 938 
-184 -155 -134 -156 -205 -221 -278 -300 -238 -167 240 462 216 74 -115 -187 23 74 34 -1 -47 -61 -27 -55 35 -134 -204 -71 -31 169 -138 -10 -20 -23 -28 -43 -4 -20 -17 -27 -27 -6 -13 -13 -20 -25 -2 -12 -9 -16 -11 6 -2 -10 -15 -10 6 1 -8 -9 -8 -18 -12 -12 -7 -6 11 -2 -4 3 8 14 16 -3 1 2 6 9 23 -8 0 9 8 10 10 5 3 6 8 14 17 -16 -17 -18 -11 16 30 5 1 9 7 16 7 -5 0 5 3 4 9 -5 -3 5 1 5 -2 4 -5 0 1 6 7 -13 -8 -9 -1 -1 -2 1238 1296 1294 1084 1247 1319 992 950 811 651 405 839 690 552 979 769 0 1225 1341 1489 1148 1153 1223 1083 870 713 509 359 870 795 594 1006 795 1147 1092 936 921 
-146 -121 -105 -123 -161 -170 -232 -261 -198 -124 232 452 220 82 -101 -171 24 72 28 -2 -28 -85 -22 -44 38 -128 -188 -61 -33 157 -124 -9 -21 -22 -27 -40 -5 -19 -16 -26 -26 -4 -14 -12 -18 -24 -1 -11 -7 -16 -9 8 -3 -10 -11 -11 5 1 -7 -8 -6 -17 -12 -10 -4 -3 11 -2 -1 3 8 15 18 -3 1 4 8 10 24 -8 1 8 6 13 11 5 1 5 8 11 16 -16 -15 -16 -10 17 30 5 1 9 7 14 5 -4 0 4 3 5 10 -6 -3 4 1 5 -1 3 -5 -1 1 6 6 -12 -8 -10 -1 -1 -3 1212 1270 1255 1059 1222 1285 972 933 791 640 400 822 679 543 958 756 0 1201 1310 1447 1126 1129 1192 1063 856 699 503 359 845 783 586 979 783 1116 1065 919 903 
-111 -89 -80 -95 -131 -149 -187 -218 -159 -87 226 444 226 93 -85 -153 31 77 27 -6 -9 -126 -20 -35 38 -121 -172 -52 -35 146 -112 -8 -20 -20 -26 -37 -6 -16 -16 -24 -24 -4 -13 -10 -19 -21 -1 -9 -7 -16 -9 11 -4 -8 -11 -10 6 0 -6 -9 -4 -15 -13 -10 -5 -3 10 -2 1 4 9 14 17 -2 0 4 7 11 24 -10 2 7 5 11 10 6 1 5 8 9 16 -14 -15 -14 -8 17 29 5 2 9 6 14 6 -3 0 5 2 5 9 -6 -3 4 0 6 -1 4 -5 -1 1 5 4 -12 -9 -10 0 -1 -4 1186 1243 1216 1034 1196 1249 952 914 770 628 395 803 665 534 935 743 0 1175 1278 1403 1102 1103 1159 1042 839 684 495 358 819 770 578 951 770 1084 1037 902 885 
-85 -69 -70 -87 -124 -151 -152 -185 -129 -62 220 440 235 106 -69 -136 30 76 23 -4 -34 -115 -17 -18 40 -115 -158 -44 -36 136 -101 -8 -19 -20 -23 -36 -7 -16 -13 -24 -24 -5 -13 -9 -16 -20 -1 -8 -7 -14 -8 9 -2 -5 -10 -10 4 2 -7 -8 -3 -15 -13 -10 -3 -3 8 -1 1 4 7 15 17 -3 0 5 7 9 23 -13 -2 3 5 9 8 7 1 5 4 6 12 -12 -15 -13 -7 18 25 4 3 9 6 13 7 -3 -1 4 1 6 9 -5 -2 2 0 5 -2 6 -6 0 1 3 5 -12 -9 -9 -1 0 -3 1161 1215 1180 1009 1171 1216 931 896 753 616 389 785 652 524 914 728 0 1149 1247 1362 1077 1076 1127 1020 822 672 487 353 797 756 568 925 756 1055 1011 884 865 
-69 -59 -69 -89 -133 -143 -125 -158 -109 -50 217 441 247 121 -53 -120 35 75 22 15 -55 -127 -16 -10 49 -109 -146 -38 -37 127 -92 -7 -18 -16 -23 -32 -6 -13 -12 -21 -23 -4 -10 -8 -14 -21 1 -8 -6 -12 -8 9 -1 -4 -9 -10 5 3 -6 -5 -4 -15 -13 -9 -5 -3 6 -2 0 3 6 14 16 -4 1 4 6 9 21 -12 -4 2 4 6 6 3 -1 3 2 5 10 -10 -14 -11 -5 16 23 3 4 8 5 12 6 -3 0 5 2 6 10 -5 -4 1 0 3 -4 7 -3 1 0 3 5 -11 -9 -9 0 0 -2 1137 1190 1147 986 1147 1187 913 879 739 605 383 771 640 512 895 714 0 1125 1218 1326 1055 1054 1101 1001 808 662 481 349 777 743 559 903 743 1029 989 867 847 
-53 -47 -66 -87 -150 -154 -98 -129 -90 -36 214 446 259 135 -38 -107 34 74 17 32 19 -212 -25 5 36 -105 -136 -33 -37 119 -84 -8 -15 -15 -21 -27 -5 -12 -10 -20 -23 -4 -10 -7 -13 -19 2 -6 -5 -13 -6 12 0 -2 -10 -7 8 2 -5 -5 -2 -14 -11 -8 -3 0 6 -1 1 3 6 13 16 -6 -1 3 5 7 18 -15 -5 1 3 4 5 4 -1 2 -1 4 8 -9 -13 -10 -4 15 19 3 5 7 5 10 7 -4 0 3 1 5 9 -3 -4 0 0 2 -3 7 -1 0 0 3 4 -10 -8 -8 0 1 -2 1118 1169 1118 967 1128 1163 897 866 726 597 380 759 629 504 879 703 0 1106 1195 1294 1037 1035 1078 986 796 653 476 346 759 733 552 883 733 1006 968 854 832 
-32 -29 -56 -76 -165 -196 -72 -97 -70 -9 212 453 272 149 -25 -95 33 68 17 52 -13 -200 -23 26 17 -101 -127 -28 -38 113 -78 -7 -15 -11 -19 -24 -6 -8 -8 -16 -22 -5 -8 -5 -9 -17 5 -6 -3 -8 -9 11 1 0 -8 -6 10 1 -4 -5 1 -14 -14 -7 -4 -1 4 0 2 1 4 11 16 -8 2 3 6 8 16 -14 -8 -1 2 1 4 3 1 1 -2 1 7 -8 -12 -8 -1 14 15 4 5 7 3 9 8 -3 0 2 1 4 6 -2 -4 0 -1 2 -2 11 0 0 0 2 3 -7 -9 -7 0 1 -2 1101 1151 1094 951 1111 1139 883 854 714 590 376 748 620 497 865 694 0 1090 1174 1266 1022 1018 1057 973 785 645 470 343 743 725 546 866 723 986 950 843 819 
-9 -7 -37 -58 -167 -205 -45 -68 -55 22 210 461 283 161 -13 -84 26 57 11 48 -8 -178 -19 25 15 -98 -120 -26 -37 107 -73 -5 -12 -8 -18 -17 -5 -5 -6 -15 -16 -4 -5 -4 -9 -14 5 -4 -3 -7 -4 12 3 0 -6 -4 9 5 -4 -3 2 -12 -13 -7 -4 -1 3 -1 1 1 3 9 12 -8 1 2 3 6 15 -15 -8 -2 0 0 2 0 -3 -1 -4 -1 4 -8 -13 -5 -2 13 11 4 7 5 2 8 8 -4 0 3 0 5 5 0 -5 0 -1 1 -1 12 0 0 0 1 2 -5 -9 -6 1 5 -4 1082 1132 1070 934 1093 1117 869 842 701 582 370 737 610 487 851 681 0 1073 1154 1239 1003 1000 1036 959 773 636 463 337 730 715 538 850 712 967 932 829 804 
6 11 -20 -43 -160 -169 -35 -54 -38 40 210 470 290 169 -6 -76 19 52 21 41 -71 -79 -37 2 34 -94 -116 -24 -35 103 -70 -5 -11 -6 -16 -13 -4 -3 -6 -12 -14 -2 -5 -1 -9 -10 6 -1 -2 -5 -7 15 2 2 -4 -3 8 3 -3 -2 4 -14 -13 -5 -4 -2 -1 -1 1 -2 3 6 12 -10 -1 3 2 6 9 -18 -10 -8 -4 -2 2 3 -4 -2 -8 -7 0 -10 -13 -4 -2 11 7 5 7 4 0 6 7 -4 0 2 0 4 3 2 -6 -2 -1 0 -2 13 2 0 -1 0 2 -2 -7 -4 2 6 -3 1059 1112 1047 913 1075 1098 852 829 691 572 358 725 597 471 837 663 0 1054 1134 1215 981 981 1017 943 758 628 453 324 717 704 525 836 696 950 915 812 784 
13 21 -21 -59 -144 -115 -44 -50 -16 47 211 478 293 170 -4 -74 20 75 45 -73 -58 -22 -44 -3 40 -93 -114 -24 -35 102 -69 -3 -9 -5 -14 -14 -3 -1 -4 -12 -12 -1 -3 -1 -8 -9 8 -1 -2 -4 -4 14 3 3 -5 -3 8 4 -2 -5 3 -15 -14 -7 -5 -3 0 -3 -1 -3 0 3 7 -11 -2 -1 -2 2 8 -19 -12 -8 -3 -3 -2 0 -6 -5 -9 -10 -4 -11 -13 -3 -4 9 4 5 6 2 0 4 5 -4 0 1 0 5 1 3 -7 -3 -2 -2 -1 16 5 1 -2 -1 0 -1 -4 -1 3 8 -1 1032 1090 1025 888 1055 1081 832 813 683 562 344 713 582 451 822 640 0 1031 1112 1191 955 959 998 926 741 619 441 309 705 690 509 822 678 935 899 791 760 
16 18 -55 -118 -109 -67 -58 -45 2 55 216 485 292 165 -8 -75 30 102 51 -160 -52 33 -61 -4 29 -94 -115 -24 -35 103 -70 -4 -7 -4 -13 -11 -2 0 -4 -11 -10 -1 -3 -1 -6 -7 7 0 0 -4 -7 14 3 3 -4 -2 8 5 -4 -2 3 -16 -14 -7 -6 -4 -3 -3 -2 -5 -2 2 6 -12 -4 -1 -1 1 4 -22 -15 -11 -8 -8 -3 -1 -8 -6 -12 -10 -5 -13 -12 -3 -6 6 3 4 5 1 0 3 5 -4 0 2 -2 3 0 5 -7 -4 -3 -2 -2 18 7 2 -4 -1 0 0 -2 0 5 10 0 1000 1064 1000 859 1033 1060 811 796 674 550 330 701 564 428 805 616 0 1004 1087 1165 926 934 976 907 721 610 428 294 692 676 491 807 658 917 880 767 733 
19 9 -103 -192 -86 -46 -60 -46 4 62 222 493 287 155 -16 -81 33 106 82 -177 -57 -13 -4 -8 25 -95 -120 -25 -35 107 -73 -3 -6 -4 -15 -9 -4 3 -5 -10 -10 -1 -3 2 -9 -7 7 0 -2 -2 -6 15 1 6 -4 -1 8 1 -2 -4 3 -14 -15 -6 -7 -3 -5 -4 -2 -8 -2 -1 4 -13 -4 -1 -5 2 5 -24 -16 -16 -7 -9 -4 0 -6 -7 -15 -15 -10 -13 -12 -2 -7 6 1 3 5 -1 0 2 5 -4 0 3 -1 3 0 5 -7 -4 -4 -3 -2 19 9 2 -4 -2 0 2 -1 1 6 10 2 966 1035 971 828 1008 1036 788 777 664 538 317 687 546 407 787 591 0 973 1058 1136 894 906 952 887 701 599 416 280 677 661 474 790 636 896 859 740 705 
33 13 -117 -234 -85 -43 -36 -47 4 67 229 499 278 139 -30 -90 35 80 83 -172 -43 -3 -9 4 23 -97 -127 -29 -33 112 -78 -4 -6 -4 -13 -8 -5 3 -3 -10 -10 -3 -1 -1 -7 -7 6 0 -1 -6 -5 12 2 5 -3 -3 6 3 -4 -3 2 -15 -17 -7 -6 -4 -6 -4 -2 -6 -4 -1 4 -13 -4 -3 -3 -2 2 -24 -17 -16 -10 -8 -6 -2 -8 -7 -16 -16 -11 -15 -13 -2 -7 7 -1 2 6 -2 -1 2 4 -4 0 2 -2 2 0 5 -6 -5 -4 -3 -4 21 9 4 -5 -2 -1 3 1 3 7 11 4 931 1005 942 798 983 1012 764 758 653 524 303 672 528 388 768 566 0 942 1028 1105 861 878 926 865 680 588 404 264 661 646 457 772 614 875 838 714 676 
56 27 -91 -223 -70 -29 -20 -41 10 72 236 504 265 119 -47 -102 34 41 68 -143 -32 48 -16 -4 19 -99 -137 -35 -31 119 -86 -5 -6 -4 -14 -7 -6 3 -4 -10 -12 -1 -3 -2 -7 -7 6 1 -2 -4 -9 13 2 2 -3 -2 7 0 -4 -5 3 -14 -15 -6 -6 -2 -7 -4 0 -6 -4 -2 4 -14 -6 -3 -3 0 -1 -24 -17 -16 -12 -12 -5 -2 -8 -10 -15 -16 -11 -16 -15 -4 -7 7 -3 2 7 -1 -1 1 4 -5 0 0 -2 2 -1 5 -6 -7 -4 -4 -4 22 10 4 -5 -3 -1 4 2 4 7 13 5 896 974 912 769 957 987 738 738 642 511 290 657 510 369 749 543 0 911 998 1074 829 849 900 842 659 577 391 250 646 629 440 753 593 853 816 690 647 
78 44 -61 -185 -39 -8 -28 -39 14 73 242 507 250 98 -65 -114 32 57 34 -126 -3 31 -12 0 20 -101 -147 -41 -29 126 -94 -5 -6 -3 -13 -7 -7 2 -2 -9 -13 -3 -2 -2 -5 -7 5 -1 -2 -3 -7 13 1 3 -4 -1 5 2 -4 -4 1 -13 -15 -6 -6 -1 -6 -4 0 -5 -4 -1 5 -13 -4 -2 -2 0 1 -24 -16 -15 -11 -12 -6 -1 -9 -7 -14 -15 -12 -15 -16 -3 -6 7 -4 2 9 -1 -1 0 5 -5 0 0 0 1 -3 6 -6 -7 -5 -6 -2 21 11 3 -3 -2 -1 5 3 6 6 12 6 865 945 882 742 931 962 715 719 630 500 280 643 493 352 732 522 0 882 969 1043 799 822 874 820 641 566 379 239 629 613 425 734 574 832 793 668 622 
88 47 -81 -166 -18 -4 -32 -39 16 73 249 513 238 80 -80 -125 46 86 -53 -119 1 33 -16 3 18 -103 -156 -46 -26 132 -101 -4 -4 -3 -11 -3 -6 5 -3 -7 -11 -3 -1 0 -5 -4 6 1 -1 -1 -7 12 3 4 -2 -1 7 1 -3 -4 4 -9 -12 -2 -3 1 -5 -2 1 -5 -2 -1 6 -11 -3 0 -2 2 0 -21 -15 -14 -9 -10 -4 -1 -5 -7 -14 -16 -11 -12 -14 -3 -4 7 -5 0 8 -1 -2 0 6 -5 0 0 0 2 -4 6 -6 -8 -5 -7 -2 22 10 4 -3 -1 -2 6 3 6 6 12 6 840 921 856 719 910 939 697 704 620 491 274 632 481 340 716 506 0 857 944 1015 776 800 851 802 626 557 371 232 615 600 414 717 559 812 774 650 602 
64 4 -173 -161 -10 -6 -28 -36 17 74 255 524 230 67 -92 -133 63 113 -196 -91 8 36 -11 9 17 -104 -163 -52 -25 138 -108 -3 -3 -1 -11 -2 -7 7 0 -7 -10 -3 -1 2 -4 -6 4 2 -2 1 -6 13 3 3 -1 0 6 0 -2 -5 6 -8 -12 -2 -1 3 -5 1 5 -3 -1 2 5 -9 -2 1 -3 2 3 -22 -13 -13 -7 -9 -4 3 -4 -7 -12 -16 -9 -10 -12 0 -1 7 -7 0 10 -3 -3 0 6 -5 0 1 -1 1 -3 5 -6 -8 -5 -6 -2 22 11 3 -3 -3 -2 5 1 5 6 13 5 819 899 832 701 891 917 682 690 609 482 268 619 469 331 701 494 0 837 921 987 757 781 831 786 612 548 365 226 602 590 405 701 546 793 756 634 586 
21 -61 -260 -140 8 10 -18 -28 22 78 260 538 227 61 -99 -138 62 37 -175 -80 6 46 -4 13 19 -105 -169 -57 -23 141 -113 -2 -3 3 -10 -1 -8 8 0 -5 -9 -3 0 2 -3 -6 8 3 -1 0 -6 11 1 7 -2 0 8 1 -3 -4 4 -5 -10 1 -2 3 -4 0 5 -4 -2 1 3 -12 -1 2 -1 2 2 -17 -13 -15 -6 -8 -4 1 -3 -3 -14 -16 -11 -7 -10 1 0 6 -6 0 10 -3 -4 0 4 -5 0 2 -2 1 -1 5 -5 -8 -3 -6 -3 23 10 4 -4 -4 -2 4 0 4 5 12 3 799 876 807 682 871 892 666 676 596 472 262 605 457 321 684 481 0 816 897 957 738 761 808 769 597 538 359 222 586 578 396 683 533 772 737 619 571 
-5 -99 -266 -111 32 35 -2 -15 32 85 264 553 225 56 -103 -141 54 9 -162 -59 6 41 -6 18 19 -106 -174 -61 -21 143 -117 -2 -1 1 -8 0 -5 7 -1 -3 -7 -3 1 1 -4 -1 8 2 -1 0 -3 9 4 4 1 0 7 1 -3 -4 5 -5 -8 0 -2 3 -4 1 3 -3 -1 -3 3 -10 1 2 -1 3 1 -18 -17 -15 -9 -8 -5 0 -2 -5 -12 -16 -12 -6 -8 3 0 7 -6 0 11 -5 -3 0 4 -6 1 1 -1 2 0 6 -6 -9 -3 -6 -3 21 11 3 -4 -4 -2 5 -2 3 5 12 2 776 852 779 662 849 866 648 660 582 461 256 590 446 311 666 466 0 794 873 927 718 740 785 750 583 527 352 217 569 565 387 663 520 749 716 601 554 
-20 -111 -221 -84 41 51 12 -1 42 93 266 566 219 50 -107 -142 34 -86 -122 10 -14 33 2 21 14 -105 -178 -67 -18 144 -122 -4 0 2 -5 1 -8 8 1 -1 -8 -2 1 1 0 -3 6 2 -1 1 -5 10 2 6 -1 1 7 -1 -1 -2 3 -4 -8 0 0 4 -5 -1 5 -2 -2 -2 3 -7 1 2 0 0 -1 -19 -15 -14 -7 -8 -3 0 -3 -7 -14 -15 -13 -5 -6 4 0 6 -5 0 10 -5 -2 -1 4 -5 1 2 0 4 -1 7 -8 -9 -4 -5 -1 19 11 4 -4 -5 -4 6 -2 3 4 11 4 753 829 752 641 826 842 631 644 571 452 250 576 436 301 649 453 0 772 849 898 698 719 763 732 570 516 344 213 553 553 378 645 508 728 697 585 537 
-42 -122 -155 -45 40 62 29 14 54 104 266 577 210 42 -111 -144 14 -161 -69 29 -10 28 4 25 17 -103 -181 -74 -15 144 -128 -3 -2 3 -8 4 -7 10 0 -1 -6 -3 1 3 0 -2 6 3 -1 0 -3 10 1 7 0 -1 6 -1 -2 -3 5 -4 -8 3 0 6 -4 2 5 -4 -1 0 5 -8 2 4 0 1 0 -17 -12 -14 -6 -6 -4 2 -3 -5 -14 -17 -11 -4 -3 4 3 7 -5 0 9 -4 -2 -3 3 -4 2 1 0 2 -2 5 -7 -9 -4 -5 0 19 11 4 -4 -4 -4 6 -3 2 5 10 3 733 809 727 624 807 819 616 631 560 445 246 565 425 294 634 443 0 754 825 870 682 701 742 716 559 508 338 211 538 543 370 629 498 708 679 572 523 
-69 -129 -82 -3 52 79 48 31 67 113 265 587 200 34 -114 -144 -19 -187 -45 53 -6 25 6 28 17 -102 -185 -81 -11 144 -133 -2 -2 4 -6 3 -5 7 0 -1 -6 -4 1 2 -2 0 5 2 0 1 -4 9 2 5 -1 2 3 3 -3 -4 6 -4 -6 3 -1 4 -4 3 4 -2 0 -1 5 -7 2 3 0 3 -1 -17 -12 -12 -7 -8 -2 3 -3 -3 -11 -15 -12 -3 -2 6 4 7 -5 1 8 -4 -2 -2 4 -4 2 1 1 2 -1 4 -6 -9 -3 -5 0 18 9 4 -5 -4 -4 4 -4 0 5 10 1 714 788 702 606 789 795 601 618 548 437 243 553 415 288 617 433 0 736 802 840 665 683 720 700 548 499 333 209 524 533 364 612 488 687 661 559 511 
-85 -114 -32 32 71 94 64 45 78 120 265 599 190 27 -117 -144 -55 -154 -37 57 3 25 7 28 16 -99 -188 -89 -6 143 -139 -1 -2 4 -7 4 -5 8 1 -2 -4 -4 1 3 -2 0 6 1 0 1 -3 9 0 8 0 0 7 -1 -3 -4 4 -2 -6 4 1 5 -3 2 3 -3 -1 -1 3 -6 4 4 0 4 0 -16 -13 -13 -5 -6 -3 1 -1 -2 -13 -16 -12 -2 -2 7 4 7 -5 1 8 -4 -3 -1 4 -4 2 1 0 3 -1 4 -6 -8 -3 -4 0 17 8 4 -4 -4 -4 3 -4 0 3 11 0 693 766 676 587 768 771 585 603 535 427 239 539 405 280 601 420 0 716 778 810 645 663 697 683 534 488 326 206 509 521 357 593 476 665 642 544 496 
-88 -89 1 60 91 107 74 55 84 122 265 615 181 20 -120 -144 -52 -189 -19 67 8 27 10 29 16 -97 -192 -98 -1 143 -145 -3 0 3 -5 3 -7 10 0 -1 -4 -4 3 2 -2 1 6 3 0 0 -3 9 0 5 1 2 5 0 -3 -2 4 -1 -4 5 2 5 -2 2 4 -3 -1 -2 2 -7 3 4 2 4 0 -14 -11 -14 -9 -7 -2 1 -2 -3 -10 -13 -12 0 0 8 5 7 -5 0 7 -4 -2 -2 3 -3 2 2 0 4 -1 5 -6 -8 -4 -5 0 16 7 5 -4 -4 -4 4 -4 0 3 10 1 674 745 652 568 748 748 570 589 525 418 234 527 396 273 586 409 0 696 756 783 627 644 675 667 521 479 320 203 495 510 349 577 465 645 625 529 481 
-86 -77 35 88 111 122 85 64 91 124 267 634 171 10 -125 -146 -58 -172 -7 63 13 26 9 26 15 -93 -196 -108 5 142 -152 0 -1 4 -4 4 -5 7 1 1 -3 -4 0 4 -1 -1 5 1 1 2 -4 8 2 5 1 3 4 1 -2 -3 5 0 -5 4 1 6 -2 4 5 -2 1 -1 1 -6 2 4 1 3 0 -15 -11 -11 -6 -7 0 3 -1 -2 -9 -14 -11 2 1 8 5 7 -5 0 8 -5 -2 -3 2 -4 3 1 0 4 0 5 -7 -7 -5 -5 0 15 7 5 -2 -4 -5 5 -5 0 2 8 1 657 725 629 553 730 727 556 575 516 411 230 517 387 266 574 399 0 678 736 758 613 628 657 653 510 471 316 201 482 500 342 562 456 628 609 516 468 
-73 -58 67 111 131 138 98 76 101 132 269 652 159 -1 -132 -149 -67 -134 3 61 18 25 9 25 13 -90 -201 -117 12 143 -159 -1 1 4 -4 8 -6 10 1 1 -2 -4 2 2 1 1 4 5 -1 3 -3 7 3 5 3 3 5 1 -1 -2 5 2 -4 6 3 7 -3 4 6 -1 0 0 3 -5 3 6 3 5 1 -13 -10 -12 -6 -6 0 2 0 -2 -8 -13 -10 3 1 9 7 7 -6 0 8 -5 -2 -4 2 -4 2 1 1 3 0 4 -5 -8 -5 -6 1 15 7 4 -1 -3 -6 4 -5 0 2 8 0 644 709 610 541 716 709 545 564 506 405 228 507 379 263 562 393 0 665 718 735 600 614 640 640 502 462 313 200 470 490 337 548 449 611 594 507 459 
-45 -15 96 134 151 154 113 90 112 142 270 668 147 -12 -137 -151 -70 -114 11 68 19 22 11 24 12 -86 -205 -126 18 142 -165 -1 -1 5 -3 7 -5 8 1 2 -1 -3 3 2 2 1 6 2 -1 3 -1 9 2 6 1 4 5 1 -1 -1 4 3 -2 6 3 9 0 3 4 0 1 0 3 -3 6 5 2 4 1 -11 -9 -9 -2 -4 1 3 0 -1 -8 -11 -11 5 2 8 10 8 -8 0 9 -4 -2 -5 2 -3 2 0 0 3 0 4 -5 -8 -4 -5 1 15 7 3 -2 -3 -7 3 -6 0 1 7 0 632 694 592 531 702 691 534 555 497 399 227 498 373 262 550 389 0 652 701 712 590 601 624 628 494 454 310 200 458 483 333 534 443 596 580 500 451 
-15 26 126 159 168 169 126 103 124 153 270 682 134 -23 -142 -151 -66 -92 15 64 20 22 7 22 12 -81 -207 -133 25 141 -170 -1 2 2 -2 7 -6 9 0 1 0 -3 0 4 0 2 4 5 -2 3 -1 7 2 5 3 4 4 -1 0 -2 6 3 -1 6 3 7 0 4 8 -1 3 1 4 -2 4 8 2 5 2 -10 -7 -10 -2 -2 2 5 1 -2 -6 -10 -8 4 2 9 11 7 -8 0 8 -4 -3 -4 3 -1 2 0 0 2 0 4 -6 -8 -2 -4 1 15 7 2 -2 -4 -6 3 -7 0 1 7 -1 617 679 573 518 685 671 523 545 486 391 225 487 365 258 537 382 0 638 683 688 577 587 606 614 485 446 305 199 446 475 329 520 435 579 564 490 441 
3 48 145 174 179 178 135 112 132 159 271 695 119 -34 -146 -152 -60 -78 17 59 19 17 7 20 11 -76 -209 -140 31 139 -175 -1 1 3 -5 6 -7 7 2 -1 -1 -2 2 3 -2 2 3 3 -1 3 -2 7 0 6 2 3 6 -3 -2 -1 5 6 0 6 4 9 2 3 7 2 3 2 5 0 5 6 3 7 3 -10 -6 -8 -2 -2 3 5 4 1 -6 -9 -7 6 4 9 10 5 -7 0 8 -4 -3 -3 3 -1 2 0 0 3 -1 4 -5 -8 -2 -3 2 16 6 3 -2 -4 -7 3 -8 0 1 7 -2 600 659 552 501 667 649 508 532 474 383 220 475 356 249 522 370 0 620 662 663 561 569 586 598 472 436 298 195 433 465 322 505 424 561 548 476 427 
16 61 154 181 184 182 140 117 136 163 273 708 104 -46 -152 -154 -54 -53 22 55 19 14 8 19 8 -71 -213 -148 38 139 -181 -2 -1 4 -2 6 -6 3 1 1 1 -4 2 3 -2 3 4 1 1 1 0 5 1 5 3 3 3 0 -2 -1 6 6 2 7 4 7 2 4 6 4 6 3 6 0 8 7 5 7 4 -6 -6 -6 -2 0 3 6 4 3 -4 -7 -4 6 4 10 9 5 -7 0 7 -3 -3 -3 2 -1 2 1 -1 4 -1 4 -6 -8 -3 -4 2 15 7 3 -2 -4 -5 4 -10 0 0 7 -3 581 640 530 484 648 627 494 518 462 375 215 463 347 241 508 358 0 602 641 638 544 552 568 583 459 427 292 191 420 453 314 489 413 543 532 463 414 
42 86 169 191 193 189 148 124 141 167 274 723 88 -58 -158 -156 -46 -32 26 53 21 13 6 19 8 -66 -218 -157 46 140 -188 -1 1 5 -2 3 -5 6 2 0 -1 -3 1 3 0 2 3 2 -1 3 -2 6 1 6 1 3 5 -3 1 -2 6 8 4 9 6 7 3 6 9 4 5 5 8 1 7 9 6 9 4 -6 -3 -4 2 1 6 6 5 1 -4 -7 -4 7 4 11 8 2 -6 -1 5 -3 -2 -2 2 0 2 1 -1 2 -1 4 -6 -7 -3 -3 2 13 7 3 -3 -4 -6 5 -8 0 0 7 -3 566 624 510 469 632 609 482 506 452 367 211 452 337 233 494 349 0 586 623 617 530 537 551 570 448 418 286 188 408 444 308 475 405 526 517 452 404 
74 118 190 208 207 201 158 135 150 175 275 738 73 -68 -162 -157 -40 -21 24 50 17 12 5 18 5 -60 -223 -165 53 141 -194 -2 2 4 -2 5 -4 6 1 1 2 -2 2 2 1 4 5 2 0 2 1 6 1 3 4 4 5 -3 0 -1 6 8 5 9 6 9 5 7 9 5 6 5 8 2 9 9 7 8 5 -4 -2 -3 0 3 6 8 7 3 0 -5 -3 8 7 12 8 1 -5 -1 4 -3 -2 -1 3 0 2 1 -1 3 -1 4 -6 -6 -2 -3 3 14 7 1 -3 -4 -6 5 -9 0 1 6 -3 553 608 493 456 617 591 471 495 442 360 209 441 330 227 481 341 0 573 606 596 520 523 535 558 439 409 281 188 396 435 304 462 397 511 502 442 395 
96 139 205 222 218 212 168 144 158 182 275 755 60 -75 -164 -157 -33 -11 26 44 17 10 5 15 6 -54 -227 -172 60 141 -200 0 0 5 -1 4 -4 5 1 3 0 -3 1 4 0 3 4 2 0 3 0 4 2 5 2 4 6 -3 -1 -1 6 9 5 11 6 10 6 8 8 4 7 4 7 3 10 11 7 10 7 -2 -2 -2 2 1 6 7 9 5 -1 -3 -1 7 8 12 8 1 -5 0 4 -5 -2 -2 2 0 1 1 0 2 -1 4 -5 -5 -3 -2 2 12 5 1 -2 -5 -7 6 -9 0 0 5 -3 540 593 474 444 603 572 460 484 432 352 206 430 322 223 469 334 0 561 590 574 509 509 518 546 431 400 276 187 383 427 299 448 390 495 488 431 386 
107 148 212 229 225 218 175 151 163 185 275 775 49 -79 -164 -156 -29 -3 23 37 15 8 5 13 4 -47 -229 -179 67 140 -204 2 -1 6 -2 6 -3 5 3 2 2 -3 2 4 1 6 5 2 1 3 1 5 1 7 2 4 4 -1 1 1 6 9 4 10 7 11 7 9 9 6 6 5 8 3 11 11 8 10 5 -1 -1 -2 5 4 6 8 7 5 -1 -2 -1 7 7 13 9 2 -5 0 4 -4 -2 -3 3 0 2 1 -1 3 -1 5 -6 -6 -3 -3 1 11 6 3 -3 -3 -5 6 -10 -1 0 4 -4 527 578 456 432 587 553 449 473 421 344 204 421 315 220 456 328 0 548 574 552 496 497 503 533 421 392 271 186 371 417 294 434 383 478 475 422 378 
114 155 217 234 230 223 181 157 169 187 275 798 39 -82 -162 -153 -26 -2 22 33 14 5 3 12 3 -40 -231 -186 74 138 -209 0 1 5 0 5 -3 5 1 2 2 -2 3 2 2 3 5 2 1 2 1 5 1 5 3 4 5 -2 1 0 6 8 5 9 6 9 6 7 9 6 7 7 7 4 11 10 9 9 8 0 0 -1 3 4 6 7 8 5 1 -2 1 7 5 12 9 3 -6 0 4 -3 -2 -4 3 0 2 1 0 3 -2 6 -6 -6 -3 -3 2 10 5 3 -3 -2 -4 5 -9 0 0 4 -5 516 564 439 422 573 537 440 463 411 338 203 412 309 219 444 323 0 537 559 532 485 485 488 521 414 385 267 187 360 409 290 421 378 465 463 415 371 
120 162 224 242 239 232 190 167 177 195 274 818 27 -84 -160 -151 -17 2 17 25 11 3 1 11 2 -33 -231 -191 81 136 -211 2 -1 6 0 6 -3 5 3 1 3 -1 1 3 2 4 4 1 2 3 2 4 2 5 2 5 4 1 0 2 5 9 5 10 8 9 7 8 10 6 6 7 7 4 10 9 8 9 7 -1 -1 1 4 4 7 7 6 5 0 0 -1 8 5 11 9 3 -6 0 4 -2 -2 -3 1 1 1 1 -1 2 0 5 -4 -6 -2 -4 2 9 4 3 -2 -2 -5 5 -7 0 -1 3 -5 505 552 423 412 561 522 431 454 402 332 200 403 303 217 434 317 0 525 544 513 475 473 473 510 406 377 264 187 349 401 287 409 372 451 451 408 363 
128 166 230 250 248 241 200 178 187 205 272 829 13 -88 -158 -148 -3 0 12 16 9 0 -1 9 2 -28 -231 -195 85 133 -213 2 2 5 1 7 -4 7 2 5 3 -1 4 3 1 7 5 3 2 2 3 5 2 6 4 6 5 1 2 1 4 12 5 10 7 11 7 7 10 7 7 3 7 4 11 10 9 10 5 -1 -2 -2 2 4 7 7 7 6 3 0 -1 9 5 11 9 3 -6 -1 5 -3 -2 -3 0 1 1 0 0 2 0 4 -5 -6 -3 -3 1 9 6 3 -1 -2 -6 6 -6 0 -1 2 -4 494 538 407 402 547 507 421 444 394 325 197 394 296 213 424 311 0 512 528 495 465 461 460 499 398 369 260 185 338 394 282 397 365 437 439 399 355 
140 171 236 257 258 251 211 189 199 215 269 832 -1 -92 -156 -145 -1 8 13 10 7 0 1 6 1 -24 -229 -197 88 130 -213 4 1 6 0 9 0 4 6 3 4 0 4 3 2 7 4 3 3 4 3 6 3 4 4 5 5 0 2 2 6 9 5 8 8 10 6 8 8 8 5 4 6 4 9 7 7 10 6 -1 1 2 3 3 5 7 6 3 1 -1 0 11 5 10 10 2 -7 -2 4 -3 -3 -4 1 0 2 0 0 2 0 4 -5 -5 -3 -3 1 9 6 2 -1 -3 -5 5 -7 1 -2 2 -3 484 523 392 391 533 491 410 433 385 318 194 384 289 208 413 304 0 499 513 476 454 449 446 488 389 361 255 182 327 385 276 384 357 424 426 390 346 
161 187 249 270 271 263 223 200 211 226 266 830 -16 -97 -154 -143 5 15 12 11 5 0 0 8 1 -21 -227 -199 90 128 -213 4 1 6 2 8 -4 6 6 2 6 0 4 4 1 6 3 4 3 3 3 5 3 3 5 5 3 0 3 2 6 11 3 8 8 7 5 5 8 7 5 4 4 4 7 7 7 8 5 -1 0 0 0 2 4 7 5 2 1 -1 0 9 5 10 11 2 -9 -1 3 -2 -4 -4 2 0 2 0 0 3 0 4 -4 -5 -3 -3 1 10 5 0 0 -3 -4 5 -6 1 -1 1 -4 471 509 377 379 520 475 400 423 375 310 192 374 282 204 402 297 0 487 498 457 442 437 431 476 380 353 250 179 316 376 271 372 348 410 412 381 337 
187 210 266 285 283 275 235 212 221 235 263 829 -32 -104 -154 -141 8 24 14 10 6 -2 3 7 1 -19 -225 -200 91 125 -213 6 1 6 2 9 1 6 4 4 5 1 4 4 1 8 5 5 3 3 5 5 4 4 6 5 5 2 1 2 9 8 3 8 5 7 4 6 6 4 5 1 4 1 6 6 5 7 4 -1 -1 -1 -1 2 3 6 5 3 0 -4 -1 9 3 10 10 1 -7 -1 4 -2 -4 -3 0 0 1 0 0 3 0 4 -3 -5 -3 -3 0 9 5 0 0 -2 -3 4 -7 1 -1 1 -5 460 496 362 369 508 459 390 413 365 304 189 366 277 200 392 291 0 476 484 438 431 425 418 465 372 346 247 179 306 369 268 361 342 397 400 373 330 
209 231 281 298 294 285 245 222 230 243 261 828 -47 -109 -153 -138 9 25 16 8 5 -4 2 7 0 -17 -223 -202 92 122 -213 4 2 8 4 8 3 4 6 4 6 1 6 4 2 7 5 4 4 4 3 7 2 6 5 6 7 1 3 4 5 6 4 6 4 4 2 5 3 6 3 2 3 2 6 4 5 6 2 -3 -1 -2 0 0 3 4 4 2 -1 -2 -2 7 3 9 9 0 -6 0 3 -2 -4 -3 0 0 1 0 0 3 0 5 -3 -4 -3 -3 1 8 5 0 0 -3 -4 5 -6 0 -1 2 -5 450 485 348 360 497 445 382 405 357 299 187 358 272 196 383 286 0 467 472 422 422 415 406 456 366 339 244 178 298 362 265 351 337 384 390 366 323 
223 244 292 306 302 293 255 232 238 249 259 821 -59 -113 -151 -134 13 28 15 7 3 -4 3 6 1 -16 -219 -202 92 119 -211 5 3 7 4 8 1 7 5 4 5 3 4 5 2 7 6 5 3 5 2 6 3 7 4 6 6 1 5 2 7 7 3 6 5 5 2 3 5 2 2 0 3 1 4 5 3 6 1 -2 -2 -4 0 -1 2 3 3 1 -1 -3 -1 6 5 9 7 -1 -6 0 1 -2 -3 -2 0 1 1 -1 0 2 0 5 -2 -4 -2 -3 1 8 3 2 -1 -2 -4 6 -6 0 0 1 -5 440 475 336 350 486 431 373 397 349 293 184 350 266 192 372 280 0 458 460 407 414 405 393 446 359 332 239 177 288 355 262 341 332 372 381 359 316 
235 255 300 313 309 300 262 240 245 254 254 806 -67 -114 -147 -129 15 33 16 5 4 -5 2 7 -1 -16 -214 -199 90 115 -207 4 5 6 3 8 0 6 6 4 5 2 5 5 3 7 6 4 3 4 5 5 5 5 3 7 5 2 3 4 7 7 3 5 4 5 2 3 4 3 2 0 2 1 5 4 2 3 1 -3 -3 -1 0 -1 2 3 3 -1 -3 -2 -2 6 5 8 8 -1 -6 0 1 -2 -3 -2 0 1 1 0 -1 1 0 4 -3 -5 -1 -2 1 7 4 2 -2 -2 -3 6 -5 0 0 1 -6 429 462 321 340 473 417 364 388 339 286 180 341 258 187 361 273 0 447 446 390 404 394 381 435 350 324 234 174 278 347 256 330 324 360 370 350 307 
249 267 308 319 315 306 268 246 250 256 249 788 -71 -113 -141 -123 16 34 14 2 3 -5 2 5 -2 -17 -209 -196 88 111 -202 4 4 8 3 9 1 7 4 6 4 3 4 4 3 8 7 3 4 4 5 9 3 6 4 5 7 2 4 3 6 5 2 6 2 6 0 3 4 2 2 -1 3 0 5 3 3 4 1 -4 -2 -2 0 0 1 4 2 1 -2 -3 -1 6 5 8 7 0 -6 -1 2 -3 -3 -3 0 2 1 0 -1 2 0 5 -3 -4 -1 -2 1 7 4 1 -2 -2 -3 7 -5 1 -1 1 -5 419 450 308 331 460 403 355 379 331 279 177 333 252 184 351 266 0 435 433 374 395 383 368 425 342 317 229 172 269 340 251 319 317 348 358 341 299 
261 277 314 324 320 309 272 250 254 258 245 771 -72 -109 -135 -117 15 36 12 2 5 -7 1 1 -2 -17 -205 -192 85 109 -198 4 4 7 3 9 1 6 5 4 6 3 4 5 3 7 7 4 3 4 4 6 4 6 4 6 4 3 4 5 7 5 2 4 3 3 0 2 3 1 1 0 1 -2 3 3 1 2 0 -2 -4 -4 -2 -2 0 2 0 -1 -3 -3 -2 7 6 9 6 0 -6 -1 1 -3 -3 -3 -1 1 0 0 0 2 0 6 -4 -2 -2 -2 0 8 4 1 -1 -2 -2 6 -4 0 0 1 -5 411 439 298 322 449 391 347 370 325 273 174 326 247 181 343 261 0 426 422 360 387 373 357 417 336 312 226 171 262 333 247 311 312 337 349 334 294 
269 284 318 329 324 313 277 255 258 261 242 755 -71 -105 -129 -111 18 36 11 0 4 -6 1 0 -3 -18 -200 -188 83 107 -194 5 3 7 2 7 1 6 5 4 5 3 5 4 3 6 6 3 4 5 2 9 2 6 3 5 7 2 2 5 6 2 -1 2 0 2 0 1 2 1 0 -1 0 -1 2 0 1 2 -2 -5 -3 -4 -2 -3 -1 1 0 0 -5 -3 -1 7 6 9 5 0 -5 -1 1 -3 -2 -4 -2 1 0 -1 -1 2 0 6 -3 -2 -2 -3 0 7 4 1 -1 -1 -2 6 -3 1 0 1 -4 402 428 287 313 439 381 338 362 318 268 170 320 241 177 335 254 0 416 411 347 379 363 347 408 328 306 222 170 254 326 242 303 306 328 340 327 288 
278 292 324 334 329 318 282 261 264 267 238 737 -71 -104 -125 -107 18 36 10 0 2 -5 -1 -1 -2 -21 -197 -182 79 106 -190 3 3 5 3 8 1 5 5 5 3 2 3 4 2 7 6 2 4 4 3 6 2 6 4 4 3 3 4 4 5 2 0 2 2 4 -1 2 3 0 0 -3 1 -3 1 0 0 2 -2 -4 -4 -4 -2 -2 -1 1 -2 -1 -4 -4 -3 7 5 9 4 0 -2 -2 1 -2 -3 -3 -4 1 0 -1 -1 0 0 6 -2 -3 -1 -3 0 7 3 1 -2 -1 -1 6 -1 2 0 0 -4 392 416 275 303 428 369 329 354 311 262 164 312 233 171 326 246 0 405 399 333 369 352 335 398 320 300 216 168 246 318 236 295 298 318 331 319 280 
290 303 332 342 336 327 290 270 272 274 233 714 -74 -105 -123 -104 17 32 9 0 -1 -6 -1 -1 -2 -24 -193 -176 75 105 -185 6 1 6 2 5 0 5 5 4 2 1 4 4 2 6 5 3 5 2 4 6 3 6 3 4 4 3 2 5 6 4 -1 2 1 3 0 0 1 1 0 -2 1 -2 2 0 1 1 0 -5 -4 -4 -3 -1 -1 2 1 0 -4 -2 -1 7 5 9 5 0 -3 -2 1 -2 -3 -4 -3 0 0 -1 0 1 -1 5 -2 -2 -2 -2 0 8 4 1 -1 -1 -2 6 -2 2 0 0 -3 381 403 263 293 416 356 319 344 303 255 161 304 227 166 317 239 0 393 385 318 359 341 324 388 312 292 211 165 237 311 230 285 290 307 321 310 272 
299 313 343 353 346 337 301 282 283 285 228 687 -78 -107 -122 -101 13 27 6 -4 1 -7 -2 -2 -3 -25 -189 -170 72 103 -180 4 1 4 4 6 0 6 3 2 3 2 3 2 4 5 5 3 2 3 4 7 4 3 3 4 2 4 4 2 5 4 0 5 4 3 0 0 2 -1 -1 0 2 -1 2 1 1 1 0 -5 -3 -1 -1 -1 -1 3 -2 -2 -1 -1 0 7 4 8 5 -1 -4 -3 1 -3 -4 -3 0 0 0 0 -1 1 -1 5 -2 -2 -2 -2 0 8 5 0 0 -1 -2 5 -1 2 0 0 -4 372 391 252 284 404 344 311 335 294 249 160 296 221 162 308 233 0 382 373 303 349 331 313 378 304 285 207 163 228 304 226 275 283 296 310 302 265 
306 321 353 363 357 349 314 295 296 298 220 652 -83 -109 -119 -97 10 24 6 -5 -2 -7 -2 -3 -4 -26 -183 -164 69 101 -174 3 2 5 3 4 -1 6 4 4 2 2 1 4 3 5 5 2 2 3 3 5 4 4 5 2 6 2 1 4 4 4 -1 3 2 3 1 1 5 0 0 0 2 0 3 4 2 2 0 -5 -4 -3 -1 1 0 2 3 1 -2 -3 0 6 2 8 5 -2 -6 -3 1 -3 -3 -3 0 0 0 0 -1 1 -2 5 -2 -3 -1 -1 1 8 5 0 0 -2 -1 6 -2 2 0 1 -4 362 380 240 275 393 331 303 327 285 243 158 287 215 158 298 228 0 372 361 289 339 321 302 368 297 278 202 160 219 297 222 264 277 284 299 294 258 
312 329 363 373 369 361 327 308 310 311 209 609 -89 -109 -116 -92 8 20 4 -7 -3 -7 -2 -3 -3 -24 -178 -158 67 98 -167 6 0 6 1 5 2 4 3 3 3 2 5 2 1 6 4 3 2 2 3 4 4 3 3 5 3 4 -1 5 6 4 0 5 1 3 1 1 1 1 0 -1 1 1 3 2 1 2 0 -3 -3 -3 -2 -1 1 1 1 1 -2 1 1 4 1 6 4 -2 -7 -2 2 -3 -2 -3 2 1 0 0 0 0 -2 4 -2 -3 -1 -2 0 7 5 0 0 -2 -1 7 -2 1 0 0 -4 351 369 227 266 381 317 294 318 277 236 156 279 208 153 289 221 0 362 348 274 329 311 290 357 290 271 197 156 210 289 217 255 271 272 288 286 250 
319 337 372 383 380 372 339 321 321 324 196 565 -95 -110 -111 -87 6 17 4 -8 -3 -7 -3 -5 -3 -21 -171 -152 66 94 -161 5 0 4 3 4 0 3 4 3 2 2 4 3 2 5 5 3 3 3 1 6 2 4 4 1 4 3 2 3 5 4 -1 3 3 3 1 0 1 2 1 0 2 1 3 2 2 2 -2 -4 -2 -2 -1 0 0 3 0 1 -1 -2 1 3 0 6 3 -1 -8 -1 1 -2 -2 -3 2 1 1 0 -1 0 -3 4 -2 -3 -1 -2 1 6 6 0 0 -2 -1 7 -2 1 0 1 -4 341 359 215 257 370 305 286 310 269 231 153 271 203 151 280 215 0 353 337 260 319 302 280 348 282 265 193 154 202 282 213 246 265 261 279 279 243 
326 344 381 391 389 380 350 332 331 333 183 524 -101 -110 -107 -82 4 14 2 -7 -2 -8 -4 -4 -3 -18 -164 -147 66 91 -155 4 1 5 1 4 0 4 3 2 3 3 2 3 2 5 3 3 1 4 1 4 3 2 3 4 3 5 0 3 4 4 0 3 1 2 1 0 3 0 0 0 1 0 1 1 0 2 -1 -3 -2 -1 0 -1 2 1 0 2 0 -1 0 1 0 4 3 -1 -7 -1 1 -1 -2 -3 1 2 0 -1 -1 1 -3 4 -1 -2 -1 -2 1 6 4 1 0 -1 -1 5 -1 1 0 0 -4 332 350 205 249 361 294 278 302 262 227 151 265 199 148 272 211 0 345 327 246 310 293 269 340 276 259 190 153 194 276 210 237 260 251 271 273 236 
333 352 390 401 398 388 360 343 341 343 170 486 -106 -111 -103 -77 1 12 1 -9 -3 -8 -2 -5 -4 -15 -157 -142 65 87 -149 4 3 4 2 5 1 3 4 2 3 2 4 3 2 3 4 4 1 2 3 5 3 3 2 4 2 2 3 3 5 4 1 1 1 1 -1 -1 0 1 0 1 1 0 2 2 0 0 -1 -4 -2 -3 -1 -1 0 3 0 -1 -1 0 2 0 -1 2 3 -2 -8 -1 1 -1 -2 -2 2 1 0 0 0 0 -2 4 -1 -3 -1 -2 1 6 4 0 0 -1 -1 6 0 1 0 1 -4 322 339 195 241 351 283 271 295 255 221 149 258 193 144 264 205 0 335 316 234 301 284 259 331 270 253 186 150 187 269 206 228 254 241 262 266 228 
341 360 399 410 409 399 372 355 353 353 158 450 -109 -111 -99 -72 3 8 1 -10 -2 -8 -3 -4 -4 -13 -150 -135 64 83 -142 4 0 4 0 5 1 4 1 3 3 1 3 2 1 3 4 2 1 2 3 6 2 3 5 2 4 3 2 2 3 2 0 4 1 4 2 1 1 -1 0 -2 -1 -1 2 2 0 1 1 -5 -3 -3 -1 2 0 2 0 1 0 -2 -1 0 -1 2 2 -1 -8 -1 1 -1 -2 -2 1 1 0 0 -1 0 -2 4 -1 -2 -1 -1 1 6 4 0 0 -1 -1 5 0 2 -1 1 -3 312 328 185 232 340 272 263 287 248 215 145 251 187 140 256 198 0 325 305 221 291 274 249 322 262 246 182 147 179 263 201 219 247 232 253 258 220 
348 369 407 419 418 409 382 364 364 363 146 417 -111 -109 -94 -67 1 7 -1 -11 -4 -7 -2 -4 -3 -11 -142 -127 61 78 -134 1 3 4 1 3 -1 4 2 2 2 1 3 2 1 2 2 3 1 2 1 3 1 4 0 3 2 3 3 2 3 3 2 2 0 2 1 -1 1 0 1 -1 0 0 1 1 0 1 0 -2 -1 -3 -1 -2 -1 -1 -1 0 -1 1 1 0 -1 2 1 0 -7 0 1 -2 -1 -3 0 0 1 0 0 0 0 3 -1 -3 -1 -1 0 6 4 1 0 -1 -1 5 0 2 -1 1 -2 302 317 174 223 329 261 254 278 241 209 142 243 181 137 247 192 0 316 293 208 282 265 239 312 255 240 179 145 171 256 196 210 242 222 244 250 213 
353 375 412 424 424 416 388 370 371 369 134 386 -112 -107 -89 -61 1 7 -2 -13 -5 -7 -3 -3 -4 -10 -133 -119 58 74 -126 3 1 2 0 4 1 1 3 3 1 2 2 2 0 3 5 1 2 2 1 6 1 3 2 2 2 2 2 2 3 2 -1 0 0 3 -1 -1 0 0 -1 -3 -1 -2 1 0 1 2 -1 -5 -4 -4 -3 -3 -1 3 -1 0 -1 -1 1 0 0 1 2 -1 -6 -1 1 -1 -1 -3 0 1 0 0 -1 1 -1 4 -1 -2 -1 -2 0 5 4 1 0 -1 0 6 0 2 -1 0 -2 292 306 163 214 318 249 246 270 234 203 139 236 176 132 238 186 0 305 282 195 273 255 228 303 247 234 174 143 163 248 191 201 235 212 235 243 206 
358 379 416 427 426 419 392 375 374 373 124 358 -112 -105 -84 -56 2 3 -2 -13 -5 -6 -3 -3 -3 -10 -126 -112 54 70 -120 1 4 2 1 3 -1 3 3 2 1 4 -1 3 3 2 2 2 3 0 2 4 0 3 2 3 2 3 2 3 2 1 -1 -1 0 1 -1 -3 2 -2 -2 -1 -1 0 -2 1 0 -2 -2 -5 -2 -4 -3 -2 -1 0 -2 0 -2 -1 -1 -1 -1 0 0 0 -6 0 1 -1 -1 -3 0 1 0 0 0 0 -1 4 -2 -2 -2 -2 0 6 3 1 -1 0 0 4 0 2 0 0 -2 281 295 154 205 307 239 238 261 227 197 135 230 169 127 230 178 0 295 271 182 263 244 218 294 240 228 169 139 156 241 185 194 228 203 227 235 197 
365 385 421 431 430 422 396 380 379 377 114 331 -112 -104 -80 -52 2 6 -3 -12 -5 -4 -3 -3 -3 -10 -120 -105 50 67 -114 3 1 2 2 4 2 3 1 4 1 1 3 2 2 1 3 3 1 1 1 6 1 3 1 2 2 3 2 4 2 0 -1 1 -1 1 -2 0 -1 -2 0 -2 -2 -2 0 0 -2 -2 -2 -5 -2 -4 -2 -2 0 2 -3 -1 -3 -1 0 -1 -1 0 1 -1 -6 0 1 -1 -2 -3 0 1 -1 0 -1 0 -1 3 -1 -2 -1 -1 0 5 3 1 0 -1 0 5 1 2 0 1 -2 272 286 145 197 298 230 231 254 221 193 131 223 163 122 223 172 0 286 261 172 254 235 209 286 233 223 165 135 150 236 180 187 221 195 219 228 189 
372 392 427 437 435 427 401 386 384 382 105 305 -113 -102 -76 -48 2 5 -2 -9 -2 -5 -3 -3 -2 -11 -115 -99 46 64 -108 3 2 3 1 5 -1 4 3 1 2 2 2 3 1 2 3 2 1 3 -1 7 2 3 1 3 4 2 3 3 2 2 -3 0 0 0 -3 -4 0 -3 -2 -2 -2 -1 -1 -1 -2 0 -4 -7 -3 -3 -1 -3 1 0 -3 -3 -3 -1 -2 0 -1 1 1 -2 -7 -1 1 -2 -1 -2 0 1 0 0 -1 0 -2 3 0 -2 -1 0 1 6 3 0 -1 0 -1 4 2 3 0 0 -1 264 277 138 189 290 222 223 247 215 188 128 217 157 117 215 166 0 277 252 162 246 227 201 278 226 217 161 131 143 230 176 180 215 187 211 220 183 
378 398 432 442 440 433 406 392 390 387 94 280 -113 -100 -72 -44 2 5 -1 -10 -1 -4 -2 -5 -2 -12 -109 -94 42 61 -102 1 2 3 1 2 -1 4 1 1 2 2 1 4 0 1 4 0 2 2 -1 7 1 2 2 2 4 2 1 3 2 1 -1 1 -1 0 -1 -3 -1 -4 -1 -2 -2 -3 -1 -1 -3 -2 -4 -6 -4 -3 -3 -4 -1 0 -2 -2 -3 -1 -1 0 0 2 0 -2 -5 -2 1 -2 -1 -2 0 1 0 0 -1 0 -2 3 -1 -2 0 -2 1 7 3 0 -1 -1 0 5 2 3 0 0 -1 257 268 131 182 280 213 216 241 209 184 124 211 152 113 208 160 0 268 242 153 239 219 192 270 219 212 157 129 137 223 171 174 209 180 204 213 178 
383 403 437 447 446 439 413 398 396 392 84 256 -113 -98 -68 -39 4 4 -1 -8 -1 -5 -2 -3 -3 -12 -102 -88 38 58 -96 2 1 3 0 5 -1 5 2 1 3 0 3 1 0 3 4 1 2 1 0 4 3 1 3 2 2 1 1 3 2 0 -3 1 -1 0 -1 -2 -1 -2 -3 -4 -4 -3 1 -2 -1 0 -3 -5 -5 -3 -4 -2 -1 1 -1 -3 -3 -3 -2 1 1 3 0 -1 -4 -2 0 -3 -2 -2 -1 0 0 0 -1 0 -2 4 -1 -1 -1 -2 1 6 4 0 0 0 0 6 0 3 1 0 0 249 258 123 174 271 203 209 233 204 179 121 206 147 110 202 154 0 259 234 143 232 211 185 263 213 207 153 128 131 217 167 168 203 172 196 206 172 
391 411 444 454 454 447 422 408 405 398 75 233 -111 -95 -63 -35 2 4 0 -8 -2 -4 -2 -3 -3 -11 -94 -82 34 53 -90 1 2 2 3 0 1 2 1 2 1 1 0 4 1 0 2 2 1 2 0 5 1 2 1 2 3 2 2 1 2 0 0 -1 -2 -2 -2 -2 -2 -3 -1 -1 -2 -2 -2 0 -3 -3 -3 -6 -3 -4 -3 -3 -1 0 -2 -1 -1 -1 0 0 0 3 0 -1 -3 -2 0 -3 -1 -2 -2 0 1 0 -1 0 -1 4 -1 -1 -1 -2 0 5 4 0 0 -1 0 5 0 2 0 1 -1 240 249 114 167 262 194 202 226 198 174 118 199 143 106 196 148 0 251 225 132 224 204 177 255 207 202 150 126 126 211 163 161 198 164 189 199 166 
399 419 452 461 462 457 432 418 416 405 66 211 -109 -92 -57 -29 2 3 -2 -7 -2 -4 -2 -4 -3 -10 -86 -75 30 48 -82 3 0 1 0 4 0 3 1 1 1 1 2 1 1 1 3 1 1 2 -1 5 1 1 3 1 4 -1 2 2 1 -1 -3 0 0 0 -2 -1 0 -1 -1 -1 -2 -3 -2 -2 -2 -1 -3 -6 -3 -3 -4 -3 -1 1 0 -2 -1 -2 -2 0 0 1 0 -3 -3 -1 0 -2 -1 -2 0 0 0 0 0 0 -1 3 0 -2 -1 -2 0 6 3 0 0 -1 -1 5 0 3 0 1 0 232 240 106 159 254 184 195 219 192 169 116 193 137 101 189 143 0 243 215 121 216 195 168 247 201 196 146 123 119 205 159 153 192 156 182 193 159 
408 428 461 470 472 467 442 429 428 413 56 185 -107 -88 -51 -23 1 5 -2 -6 -2 -5 -2 -4 -3 -9 -76 -68 26 42 -72 1 1 2 0 2 0 4 0 2 1 2 1 3 -1 3 2 1 0 2 0 5 1 2 2 1 5 -1 1 1 3 -1 -2 1 -2 0 -1 -3 0 -4 -1 -4 -1 -1 -2 -2 -4 0 -4 -6 -2 -2 -1 -1 0 0 0 -2 -3 -3 -2 0 0 1 0 -2 -3 -1 1 -2 -2 -1 0 0 0 0 -1 0 -2 2 0 -1 0 -1 0 6 3 0 0 -1 0 5 0 3 0 1 0 223 230 98 152 245 174 188 213 186 164 113 187 132 98 181 138 0 234 205 111 207 186 159 239 194 191 141 121 113 199 155 146 186 148 174 186 153 
420 441 473 482 485 479 455 442 443 426 44 155 -106 -83 -43 -15 4 4 -4 -6 -3 -4 -2 -4 -3 -6 -65 -60 22 36 -62 2 2 1 0 1 1 2 0 2 -1 -1 1 3 0 1 4 -1 1 1 1 5 0 2 2 1 2 -1 2 2 0 0 -1 -1 -1 0 -2 -2 -3 -4 -1 -3 0 -4 1 -1 -4 -3 -3 -5 -4 -3 -2 -1 -2 2 -1 -2 -2 -1 -2 0 0 1 0 0 -4 -2 0 -2 -1 -2 0 0 0 0 -2 0 -2 3 0 0 0 -1 1 6 2 0 0 -1 -1 5 0 3 0 1 0 215 221 90 144 235 164 181 206 180 159 110 180 127 95 174 131 0 225 196 100 199 178 150 232 187 185 137 118 107 193 150 139 180 140 167 179 146 
432 452 483 493 496 491 467 455 455 438 30 120 -105 -78 -36 -8 4 3 -3 -4 -4 -3 -2 -4 -2 -4 -54 -51 19 29 -51 0 2 2 -1 2 0 3 1 0 1 2 1 1 0 0 2 3 1 0 -1 6 -2 2 2 0 6 -4 2 1 2 -1 -1 0 -1 -1 -2 -3 -1 -2 -1 -2 -2 -2 -2 -1 -2 -1 -3 -5 -1 -5 -4 -2 -1 1 1 -1 -2 -2 0 0 0 1 0 0 -3 -1 0 -2 -1 -2 0 0 0 0 -1 0 -2 2 -1 -1 0 0 0 6 2 0 -1 0 0 4 -1 3 0 0 0 206 213 82 136 226 154 174 199 174 154 107 175 122 91 167 125 0 217 187 89 191 171 142 224 181 180 133 116 100 188 145 133 174 133 160 172 139 
442 462 493 502 505 500 477 465 465 449 16 82 -106 -74 -28 0 4 3 -3 -4 -3 -2 -2 -3 -2 -2 -43 -41 15 22 -41 2 2 0 1 0 0 1 1 0 0 0 1 1 1 1 3 -1 1 2 -1 3 1 0 1 0 4 -2 2 2 0 1 -1 -2 -1 -1 -1 -3 -3 -3 -3 -2 -2 -3 0 -2 -2 -1 -3 -2 -3 -1 -2 -2 -1 -1 0 -3 -1 0 0 0 0 0 0 -1 -2 -1 0 -1 -1 -1 0 0 0 0 -1 0 -1 3 0 -1 0 -1 0 5 1 0 0 -1 0 6 -1 3 0 0 0 199 204 74 129 218 144 167 192 168 150 105 169 117 87 161 120 0 209 179 80 184 163 133 216 175 176 131 114 94 182 142 126 169 125 153 166 133 
453 473 504 512 514 510 488 476 475 461 0 41 -107 -69 -21 7 3 3 -1 -5 -4 -2 -1 -4 -1 0 -31 -31 11 15 -30 1 3 0 1 0 -1 2 2 0 0 1 2 1 0 1 3 2 2 1 -2 3 0 2 3 0 4 -3 2 2 1 0 -3 -3 -1 -2 -3 -3 -1 -1 -2 -2 -1 -2 -1 -1 -1 0 -2 -3 -2 -4 -5 -2 -1 2 2 -1 0 -1 0 0 0 0 0 -2 -2 -2 0 -1 -2 -1 -1 1 0 0 0 0 -2 3 0 -1 0 -1 0 3 1 0 0 -1 0 5 0 2 0 0 0 192 197 66 123 210 136 161 186 162 146 102 163 113 83 155 115 0 201 171 70 177 156 126 209 170 171 127 112 88 176 138 120 163 118 146 160 127 
463 483 513 521 523 518 497 486 484 472 -15 -1 -107 -64 -13 15 0 2 -2 -4 -3 0 -3 -2 -2 1 -19 -21 8 9 -19 2 1 0 0 3 2 2 0 2 -1 0 1 1 0 0 3 1 0 2 0 5 1 0 2 1 3 -3 2 2 1 -1 -2 -1 -1 1 -3 0 -2 -3 -1 -3 -2 -3 -1 -1 -3 -1 -2 -4 -2 -1 -1 -1 1 3 1 -2 -1 -1 -1 0 0 0 0 -2 -3 -2 0 -1 -1 -2 0 0 0 -1 -1 0 -1 3 0 -1 0 -1 1 2 2 0 0 -1 0 5 -1 3 0 0 0 185 189 59 117 203 128 155 180 157 142 100 158 109 80 150 111 0 194 164 61 170 150 120 203 164 166 124 109 82 171 134 114 159 112 140 155 122 
470 490 520 528 530 525 504 495 491 480 -29 -39 -106 -58 -5 23 0 3 -2 -4 -3 0 -4 -2 -1 2 -8 -12 5 3 -9 1 3 -1 0 0 -3 3 3 0 0 1 1 1 -1 0 4 -1 2 1 0 4 0 2 1 0 1 -1 2 1 0 1 -3 -3 0 0 0 -4 1 -1 -3 -4 -4 -3 0 -3 -2 0 0 -3 -3 -1 -2 -1 -1 3 0 -1 -1 -1 -1 0 -1 0 1 -1 -3 -1 1 -1 -1 -2 -1 0 0 0 -1 0 -1 4 0 0 0 0 1 3 2 0 0 -1 -1 3 -1 2 0 0 0 178 181 54 112 195 120 150 174 152 138 97 153 105 78 143 107 0 187 157 52 163 143 113 197 159 161 121 107 77 167 130 108 154 105 134 150 117 
477 497 526 534 534 529 509 501 497 488 -42 -72 -104 -53 2 31 1 2 -1 -3 -4 0 -2 -2 -2 3 3 -2 2 -3 1 2 2 1 0 1 1 1 1 1 1 1 0 2 1 0 3 1 1 1 0 3 1 1 1 1 0 -2 2 1 3 0 -1 -2 -2 -1 -1 -2 -2 -3 -2 -2 -3 -3 -2 -1 -1 0 0 -1 -1 -2 -2 -2 -1 3 0 -2 -1 -1 1 0 0 0 0 -1 -3 -2 1 -1 -1 -2 -2 0 0 0 0 0 0 4 0 0 0 0 0 3 1 0 0 -1 0 2 0 3 0 1 0 172 174 48 106 188 113 144 169 147 134 94 148 101 75 137 102 0 180 150 43 157 136 106 191 154 157 119 105 73 162 127 102 149 99 128 144 111 
484 504 531 539 538 533 514 505 502 494 -53 -100 -100 -47 9 38 0 2 -1 -2 -3 -1 0 -3 -2 4 13 7 -1 -8 11 1 3 -1 2 3 1 2 1 1 0 1 3 2 -2 2 4 0 2 1 0 5 0 1 3 0 0 -2 3 3 2 -1 -2 -2 0 -1 -4 -1 -1 -1 0 -3 -1 -3 0 -3 -3 0 -3 -4 -3 -2 -3 0 0 6 0 -2 -1 -1 0 0 0 0 0 -1 -3 -2 0 -1 -1 -1 -1 0 0 0 0 0 0 3 0 0 0 0 0 2 1 0 0 -1 0 1 0 3 0 1 -1 166 168 42 100 181 107 139 163 141 130 92 143 97 72 132 97 0 174 143 34 151 130 100 185 149 153 116 103 68 157 124 97 145 94 122 139 106 
489 508 534 542 542 537 519 509 506 497 -63 -123 -96 -41 16 44 -1 2 -1 -3 -2 -2 0 -2 -1 5 22 16 -3 -13 20 1 2 2 -2 1 0 4 -1 2 -1 0 1 0 1 1 3 1 1 2 0 2 1 2 2 1 0 -1 1 1 4 -1 -2 0 -3 1 -1 -1 -1 -3 -2 -3 -1 -4 -1 -1 -1 -1 -2 -1 -3 -2 -1 -1 0 4 1 -2 -2 -4 -1 0 0 0 0 -2 -4 0 0 -1 0 -1 0 0 0 -1 0 0 -1 3 0 -1 0 -1 0 3 2 0 0 -1 0 0 0 3 0 1 -2 161 161 38 96 175 100 134 159 136 127 91 139 94 70 128 94 0 170 137 26 146 125 95 179 145 149 113 101 64 153 122 93 142 89 118 135 102 
491 510 534 542 543 538 521 511 508 497 -70 -141 -92 -36 21 49 0 0 0 -2 -2 -1 1 -2 -2 5 31 24 -5 -18 28 3 2 0 0 2 0 1 2 1 -1 2 0 2 -1 3 3 -1 1 3 0 3 2 0 2 1 -3 0 0 1 3 0 -2 -3 -1 0 -3 -2 -1 -2 -1 -3 0 -3 -1 -2 -3 0 -3 -3 -3 -1 -2 -2 -1 6 0 -1 0 -1 0 0 0 0 0 0 -3 -1 0 -1 0 -2 0 0 0 -1 0 0 -1 3 0 -1 0 0 0 2 2 0 0 -1 0 0 0 2 0 1 -2 155 155 33 91 169 94 129 154 132 123 90 135 91 68 124 89 0 163 131 19 141 120 90 174 141 145 110 100 61 149 118 89 138 84 113 130 98 
493 513 536 544 544 541 523 513 511 499 -75 -155 -88 -32 26 54 1 0 -1 -2 -2 -2 1 -1 -1 6 38 31 -7 -22 35 2 1 3 -1 1 2 1 1 2 -1 0 2 1 1 0 4 1 1 1 0 4 0 4 2 0 1 -2 0 2 3 -1 -1 -1 -3 0 -2 -1 -3 -2 -1 -2 -1 -4 0 -1 -2 -2 -2 -3 -2 -4 -1 0 0 5 2 1 -3 -2 1 0 0 0 0 0 -3 -1 0 0 0 -2 0 0 0 0 0 0 -1 3 0 -1 0 0 0 1 2 0 0 -1 0 0 0 1 0 1 -2 149 148 27 84 162 87 124 149 127 119 87 130 86 65 118 84 0 156 125 10 134 113 84 168 136 141 106 98 56 144 114 84 133 77 108 125 93 
497 517 540 548 548 547 527 517 517 504 -80 -167 -84 -28 30 58 -1 0 1 -2 -1 -1 2 -2 -2 6 44 39 -11 -25 41 2 3 0 0 2 -1 3 1 0 -1 0 2 1 2 0 2 2 1 1 0 2 1 1 3 0 -1 -3 2 1 2 1 -2 -2 0 0 -3 -2 -2 -3 -3 -1 0 -3 -1 -1 -1 -2 -2 -1 -1 -2 -2 0 0 4 2 -2 -1 -2 0 0 0 0 0 0 -4 0 0 -1 -1 -1 0 0 1 -1 0 0 -1 3 0 0 0 0 0 2 1 0 0 -1 0 0 0 0 0 1 -1 143 142 23 79 156 80 119 144 123 116 85 126 82 62 113 80 0 151 119 3 128 109 78 163 131 137 104 95 52 140 111 80 128 72 104 120 88 
500 520 545 551 551 550 531 521 521 507 -83 -178 -80 -24 34 62 -1 -1 1 -4 -2 0 0 -1 -1 6 50 46 -15 -28 48 3 0 1 -1 2 1 2 1 0 0 3 0 1 0 2 4 -1 1 2 -1 4 0 0 2 1 -1 -3 1 2 3 -1 -3 -1 -1 1 -1 -2 0 -2 -2 -2 -1 -2 -1 -2 -2 -1 -3 -2 -2 -1 -2 -1 0 6 1 -2 -1 -1 1 0 -1 0 0 -1 -3 -1 0 -1 -1 -1 0 0 0 0 0 0 -1 3 0 0 0 0 1 2 1 0 0 -1 0 1 -1 1 0 1 -2 138 136 18 75 150 73 115 139 118 114 84 122 79 60 109 77 0 145 114 -4 122 104 73 158 127 134 102 94 48 136 109 76 124 68 99 115 84 
503 522 547 553 554 551 534 525 524 511 -87 -190 -78 -20 39 67 -1 -2 0 -3 0 -1 1 -1 -1 6 57 53 -19 -32 54 1 3 0 0 2 -1 2 3 1 0 -1 2 0 1 1 3 0 2 0 -1 0 1 1 3 0 -2 -2 2 1 2 0 -1 -3 1 1 0 -1 -1 0 -3 -3 -1 -3 1 -1 0 0 -2 -1 -4 -3 -4 -1 0 5 3 -1 -1 -2 0 0 -1 0 1 -1 -3 -1 0 -1 -2 -1 0 0 0 0 0 0 -2 3 0 0 0 -1 1 1 1 0 0 -1 0 0 -1 2 0 0 -1 132 130 12 70 143 66 110 134 114 110 81 117 76 57 105 73 0 139 107 -13 116 97 67 152 122 130 98 92 43 131 105 71 119 63 93 110 79 
503 521 545 552 554 551 535 526 525 511 -91 -203 -75 -17 44 72 1 -2 -1 -2 -2 0 0 -1 0 7 64 60 -23 -35 61 2 2 0 -1 2 0 2 0 -1 1 1 2 1 0 1 3 1 1 0 1 2 1 1 3 -1 -5 0 1 0 5 0 -2 -1 -1 -1 -2 -2 -1 -2 -2 -1 0 -2 0 -2 -1 -1 -2 -2 -3 -2 -2 0 -1 8 1 -1 -1 -3 3 0 0 0 0 0 -3 -1 0 0 -1 -2 0 0 0 0 0 0 -2 2 0 0 0 0 0 1 2 0 0 -1 0 0 0 1 0 0 -1 126 123 7 65 136 60 104 128 109 106 79 112 72 55 100 68 0 132 100 -21 111 91 62 146 117 126 95 90 39 127 101 66 115 57 88 106 74 
499 517 541 548 551 549 533 525 523 507 -94 -216 -74 -14 48 75 -2 -1 -1 -2 -1 -1 -1 0 -1 7 70 65 -27 -39 67 2 2 0 -1 2 0 2 2 2 -2 0 2 -1 1 1 4 1 2 0 0 2 2 0 2 1 -7 0 1 1 4 0 -2 -2 -1 2 -2 -1 -1 0 -2 -4 0 -5 -1 -3 0 -1 -1 0 -2 -1 -2 -1 -1 9 -1 -3 -2 -2 1 0 0 0 0 -1 -3 0 0 0 -1 -1 0 0 0 -1 0 0 0 2 0 0 -1 0 0 1 2 0 0 -1 0 -2 0 1 0 2 -3 120 117 3 60 131 55 99 123 103 102 77 108 69 52 95 64 0 127 95 -30 105 86 57 141 113 122 93 88 36 123 99 61 111 52 84 101 69 
492 511 535 542 546 543 529 521 517 502 -97 -227 -73 -12 50 78 -1 -2 -3 -1 -2 0 0 -1 0 7 74 69 -30 -41 71 1 2 1 0 1 1 1 2 1 -1 0 2 2 0 0 3 2 1 1 0 3 0 3 1 -1 -7 -1 3 1 4 -1 -1 -2 -1 0 -1 -1 -2 -1 -1 -2 -1 -4 -1 -1 -2 -2 -1 -3 -2 -3 -1 -1 -2 10 0 -2 -2 -2 3 0 0 0 0 -1 -2 -1 0 0 -1 -2 0 0 0 -1 0 0 -1 4 0 0 0 0 0 0 1 0 0 -1 0 -4 1 1 0 1 -2 115 111 -1 55 125 51 94 119 99 99 75 104 65 49 90 60 0 121 91 -38 100 81 52 136 109 119 90 86 32 119 95 58 107 48 79 97 65 
484 504 527 535 540 537 523 515 510 496 -99 -236 -73 -12 51 80 -1 -3 -1 -2 -1 1 1 -1 -1 7 77 71 -32 -42 73 3 0 0 1 2 2 2 1 0 0 2 1 0 0 3 3 2 1 0 1 2 2 0 3 0 -8 0 2 2 6 -1 -2 0 1 0 -2 -1 -1 -2 -3 -2 0 -3 -3 -2 -1 -1 -2 -1 -1 -1 -2 1 -1 9 -1 -3 -1 -3 3 0 0 0 0 -1 -3 0 0 0 0 -2 0 -1 0 0 0 0 -1 3 0 0 0 0 0 1 1 0 0 -1 0 -5 0 3 0 1 -3 109 105 -4 50 120 45 90 114 94 96 72 100 61 46 86 56 0 116 86 -46 94 76 47 131 104 115 87 83 28 114 91 54 103 45 75 92 60 
479 498 523 530 535 532 519 511 506 492 -100 -241 -74 -13 51 80 0 -3 -1 0 -2 0 1 -1 1 7 77 71 -33 -42 74 1 1 2 2 0 -1 3 2 0 1 0 3 0 1 0 4 1 2 1 -1 2 1 3 1 0 -8 -1 3 3 3 0 -2 0 0 -2 -1 -2 -1 -1 -3 -1 -2 -4 0 -1 0 0 -1 0 -3 -3 -2 -2 -1 9 -1 -3 -2 -1 2 0 0 0 1 -2 -2 -1 0 -1 -1 -1 0 0 0 0 0 0 -1 3 0 -1 0 0 0 0 2 0 0 -1 1 -4 1 2 0 1 -3 105 101 -8 46 115 41 86 110 89 93 70 96 59 43 82 53 0 111 82 -52 89 71 44 126 100 112 84 81 24 111 89 50 99 41 71 87 57 
474 493 518 524 529 526 514 506 502 486 -102 -245 -76 -14 50 80 -1 -3 -2 -1 -1 1 1 -2 0 7 77 70 -33 -42 73 2 2 1 0 0 2 1 2 1 0 1 2 0 1 1 2 3 1 2 0 2 2 2 2 -1 -8 2 2 0 5 -1 -1 -2 -1 0 0 -1 -2 -1 -2 -3 -2 -3 -2 -1 0 1 0 -1 -2 -3 -2 -2 -2 8 -2 -2 -2 -3 3 0 0 1 0 -2 -2 -1 0 -1 -2 -1 0 0 0 -1 0 0 0 3 0 -1 0 -1 0 0 1 0 0 0 0 -3 1 2 0 0 -2 101 97 -11 43 111 37 82 106 86 90 69 93 57 41 79 49 0 107 78 -57 85 68 40 122 98 109 83 80 21 107 87 47 95 38 68 84 54 
464 482 509 516 520 517 506 498 494 478 -103 -247 -78 -17 49 78 -1 -6 -1 -1 -2 0 1 -1 1 7 76 68 -33 -42 72 2 1 2 0 2 0 3 2 0 1 1 2 0 0 2 3 3 0 2 0 1 3 2 1 1 -9 3 1 3 6 0 -3 -1 -1 -1 -1 -2 0 0 -2 -3 -1 -4 -2 -1 -1 1 -1 0 -3 -3 -1 -2 -1 7 -2 -1 -3 -1 4 0 0 0 0 -2 -1 0 0 0 -1 -1 -1 0 0 0 0 0 0 3 0 -2 0 -1 0 0 2 0 0 0 1 -3 2 1 0 1 -3 97 92 -14 40 106 34 79 102 82 87 67 90 54 39 75 46 0 103 74 -63 81 64 37 117 94 106 82 79 19 103 84 44 92 34 65 81 50 
454 473 501 508 511 509 498 491 487 471 -104 -250 -79 -18 47 77 -2 -4 -1 -1 0 0 0 1 0 7 75 67 -32 -41 71 1 0 3 -1 0 0 3 0 2 0 2 1 1 2 0 4 2 0 2 0 3 0 2 4 -1 -9 3 3 0 5 -1 -2 0 -3 0 0 -2 -1 -3 -1 -1 -1 -3 -1 0 0 -1 -2 -1 -2 -4 -2 0 -1 8 -4 -1 0 -4 2 0 0 0 0 -1 -2 0 0 0 0 -1 0 0 0 0 0 0 0 3 0 -2 0 -1 0 -1 2 0 0 0 0 -4 3 1 0 1 -3 93 88 -16 37 102 32 76 99 78 85 66 87 52 38 72 43 0 99 71 -68 77 60 34 113 91 103 79 78 17 100 82 42 90 31 62 78 47 
448 468 496 503 506 503 493 487 482 467 -105 -252 -80 -18 47 77 -1 -3 -2 -1 0 1 0 1 -1 8 74 65 -31 -41 70 2 -1 2 -1 2 -2 4 1 0 0 1 3 1 0 1 2 2 0 2 1 2 0 4 0 1 -9 3 2 1 5 0 -4 1 0 1 0 -2 1 0 -1 -1 0 -2 -1 -2 -2 0 -1 -1 -1 -4 0 -2 -1 8 -3 0 -2 -2 2 -1 0 1 0 0 -2 -1 1 -1 0 -1 0 0 0 -1 0 0 -1 2 0 -2 0 -1 0 0 1 1 0 -1 0 -3 3 1 -1 1 -2 88 84 -18 34 98 28 72 96 75 83 65 83 49 37 69 40 0 94 67 -73 73 57 30 109 88 101 77 77 14 97 80 38 87 28 60 74 45 
445 464 491 498 501 499 489 483 477 462 -106 -254 -81 -18 47 77 -2 -2 -1 -1 0 1 0 1 -1 9 74 64 -30 -42 69 3 -1 3 -2 3 1 1 2 0 1 1 0 1 0 1 4 0 1 2 0 3 0 3 0 0 -9 2 2 2 5 1 -1 1 -1 1 -1 -1 0 -1 -3 -2 -2 -3 0 -1 0 1 0 -2 -3 -3 0 -2 -1 8 -4 -2 -3 -1 3 0 0 2 0 0 -2 -1 0 -1 -1 -1 0 1 0 0 0 0 0 1 0 -1 0 -1 0 0 1 1 -1 0 0 -4 3 1 0 1 -2 84 79 -22 30 92 23 68 91 71 80 63 80 46 35 64 37 0 89 61 -81 68 52 25 105 83 97 75 75 11 93 77 35 83 24 56 70 42 
442 462 486 493 497 496 485 479 473 457 -107 -256 -81 -17 48 77 0 -1 -1 0 0 0 2 -1 0 10 74 63 -28 -42 69 2 0 4 -2 0 -1 3 1 -1 0 3 1 1 -1 2 3 2 1 1 0 2 0 2 3 -1 -9 2 2 1 4 1 -1 2 -1 0 0 -2 1 -1 -1 -1 0 -2 -2 -1 -1 1 -1 0 -1 -3 -2 0 -1 8 -3 -1 0 -3 2 1 0 3 0 0 -2 -1 0 -1 -1 -1 0 0 0 0 0 0 0 2 0 0 0 0 0 0 0 1 -1 0 1 -4 3 2 0 1 -3 81 74 -25 26 87 19 64 87 66 77 62 77 44 34 61 33 0 84 57 -87 64 47 21 101 80 95 73 74 8 90 75 32 79 22 53 66 39 
441 460 483 490 494 494 484 477 471 453 -107 -259 -81 -17 48 77 0 -3 0 0 -1 1 1 0 1 11 74 63 -27 -43 69 3 0 3 -1 2 2 1 2 0 0 -1 2 0 1 -1 4 1 1 2 0 2 1 3 2 0 -7 1 1 2 4 0 -1 1 0 1 -1 0 -2 -1 -3 -2 -2 -4 0 -1 0 0 1 -1 -2 -2 -1 -1 -1 8 -2 -1 -3 -3 2 0 0 2 0 0 -1 0 0 -1 -2 0 -1 0 -1 0 0 1 0 2 0 0 0 -1 0 0 1 0 0 -1 0 -3 3 1 0 1 -2 78 71 -27 23 84 16 62 84 64 76 61 74 43 32 59 30 0 82 55 -92 61 44 19 98 78 93 72 74 6 87 74 30 76 19 50 63 36 
439 458 482 488 491 491 481 474 468 450 -108 -261 -80 -16 48 77 0 -2 -1 0 1 0 1 1 0 11 75 64 -27 -43 69 2 0 3 1 -1 -1 3 1 1 -1 1 2 1 0 1 2 1 3 0 0 3 1 2 2 0 -7 1 2 0 6 0 -3 1 -1 -1 -1 -2 0 -1 -2 -3 -1 -2 -1 -3 0 0 -1 -2 -1 -1 -2 0 0 9 -2 -1 -1 -3 2 0 0 2 0 -1 -1 0 0 -1 -1 -2 0 0 0 0 0 0 0 3 0 -1 0 -1 0 0 1 0 0 -2 0 -2 2 1 0 1 -2 73 66 -29 19 80 12 58 81 60 73 60 70 40 29 56 27 0 78 52 -97 56 41 16 94 75 90 71 72 4 84 70 28 73 16 47 59 33 
438 456 480 485 489 489 479 473 466 448 -108 -263 -78 -16 48 78 0 -1 0 0 0 1 0 2 0 12 77 64 -26 -44 70 2 0 4 -3 0 -2 4 1 0 0 1 1 -1 1 0 3 3 0 1 0 3 0 3 1 0 -7 0 2 0 5 1 -3 1 -2 0 0 -2 1 -2 -3 -2 -2 -3 -2 0 1 0 0 -1 -1 -4 -1 -1 -1 9 -1 -1 -2 -2 2 0 0 1 0 -2 -1 -1 0 -1 -1 -1 -1 0 0 0 0 0 0 2 0 0 -1 0 0 1 1 0 0 -1 0 -2 1 1 0 2 -3 68 61 -31 16 75 7 54 76 55 70 57 67 37 25 52 23 0 72 47 -103 51 37 12 90 71 86 68 69 1 81 67 24 69 13 44 55 28 
439 457 479 484 490 489 479 473 465 445 -108 -263 -78 -16 49 78 1 1 0 0 0 3 -1 2 1 12 78 66 -27 -45 72 -1 1 1 1 0 0 3 2 0 -1 1 3 -1 0 1 3 2 0 0 0 2 -1 1 2 0 -6 0 1 1 3 -2 -2 -1 0 0 -1 -1 0 0 -2 -2 -1 -2 -1 -1 0 0 0 0 0 -3 -2 0 -1 7 -1 0 0 -1 2 -1 0 1 0 -2 0 0 0 -1 0 0 0 0 0 -1 0 0 0 2 0 -1 0 0 0 0 0 0 0 0 0 -3 0 2 -1 2 -3 63 57 -34 13 71 2 50 73 52 68 56 65 34 23 49 19 0 68 44 -110 47 33 8 85 68 84 66 68 -1 78 65 21 66 10 41 52 25 
442 460 479 485 491 490 478 474 466 444 -108 -264 -77 -15 50 80 1 2 0 3 0 2 -1 3 0 12 79 67 -27 -46 73 0 2 2 1 -2 0 3 1 1 -2 1 2 0 1 0 2 3 -1 1 -1 1 2 1 0 1 -8 0 3 -1 5 0 -1 0 -1 -1 -1 -1 0 -1 -2 -2 0 -3 -1 0 -1 -1 -1 1 -1 -2 0 -2 0 8 -1 -3 -1 -2 3 -1 0 1 0 -1 -1 0 1 -1 -1 -1 0 0 0 -1 1 0 0 2 1 -2 0 -1 0 0 0 0 0 0 0 -2 1 1 0 1 -2 59 53 -38 10 67 -2 46 69 49 65 54 62 32 21 46 16 0 64 40 -116 43 29 4 80 65 81 64 66 -4 74 62 18 62 6 37 48 21 
442 460 478 484 489 489 476 472 465 443 -109 -265 -77 -15 51 81 1 1 1 1 1 3 -1 2 0 12 81 69 -28 -47 75 1 1 1 0 0 0 3 2 -2 2 1 1 0 0 1 3 1 0 3 -1 3 0 0 3 1 -9 0 2 1 4 -2 -2 -1 0 -2 -1 0 1 0 -2 -1 -1 -4 -1 -2 -2 1 -1 0 0 -1 -1 -1 1 10 -2 -2 -1 -2 1 -2 0 0 0 -1 -1 0 0 -1 -1 -1 0 0 0 -1 0 0 0 2 0 -1 1 -1 0 0 0 -1 0 0 0 -2 1 2 -1 1 -1 55 49 -40 7 63 -5 43 67 46 63 53 59 29 19 43 13 0 61 37 -122 40 26 1 77 61 78 62 64 -6 71 59 15 59 4 33 45 18 
438 455 475 479 484 485 472 468 462 439 -110 -266 -77 -14 51 82 1 1 1 0 1 3 -1 3 1 12 82 70 -29 -47 76 1 -1 3 1 -2 1 2 2 0 0 1 2 1 0 1 4 0 1 2 2 0 2 1 2 0 -6 -1 0 1 6 -1 -2 1 -1 -2 0 -1 0 -1 -2 -2 -1 -3 0 -2 -2 0 1 1 -2 -1 0 0 -2 8 2 -1 -2 -3 3 -1 0 0 0 -1 -1 0 0 0 -1 0 0 0 0 -1 0 0 0 2 0 0 0 0 1 -1 0 0 0 0 0 -3 1 2 0 1 -2 52 46 -42 4 59 -8 40 64 42 61 51 56 27 18 40 11 0 58 35 -128 36 22 -2 74 58 75 60 63 -8 68 58 14 56 2 31 42 15 
432 449 471 473 479 478 466 462 456 432 -112 -268 -77 -14 51 82 -1 2 0 2 1 1 0 2 0 12 83 71 -30 -48 77 2 1 2 -1 0 1 3 0 1 -1 0 2 1 0 0 2 2 0 2 0 0 0 2 2 0 -9 -1 3 -1 4 0 -1 1 -2 0 -1 -1 -2 -2 -1 -1 0 -2 0 -1 -2 0 -1 2 0 -2 1 0 0 9 0 -1 -1 -3 1 0 0 1 0 0 -1 0 0 0 -1 -1 -1 0 0 -1 0 0 0 2 0 0 0 0 0 0 0 0 0 -1 0 -2 0 1 0 1 -1 50 43 -44 1 55 -12 37 61 39 57 49 52 25 17 37 7 0 54 32 -133 32 20 -4 72 55 73 58 62 -10 65 55 11 53 -1 29 39 13 
428 445 466 468 474 472 462 457 451 427 -113 -270 -78 -14 51 83 2 0 1 1 1 2 0 1 1 12 84 72 -30 -48 78 2 1 3 -1 1 -1 2 3 -1 1 2 1 0 0 1 3 2 0 1 3 3 -1 2 2 0 -3 -5 2 2 5 0 -2 0 -1 -1 -1 -1 2 1 -2 -1 -1 -4 -3 -2 -2 0 1 2 2 -1 1 2 -1 9 2 -1 -2 -3 2 0 0 1 0 0 -1 0 0 -1 0 0 0 0 0 0 0 0 0 2 0 0 1 0 -1 -1 0 0 -1 -1 0 -1 0 0 0 1 -1 48 40 -46 -1 53 -16 35 59 36 55 49 50 23 16 34 5 0 52 30 -138 29 17 -6 69 53 71 57 61 -12 63 54 9 51 -3 28 36 11 
425 442 460 464 469 469 458 454 446 424 -114 -272 -79 -14 51 83 1 1 0 1 -1 2 0 3 -1 12 84 73 -30 -48 78 2 1 3 -2 -2 0 1 2 1 0 0 2 2 -1 1 4 0 1 2 0 -1 0 1 2 1 -6 -3 2 0 5 -1 -2 -2 -3 0 2 -1 -1 -1 -1 -3 -2 -3 1 -1 -1 1 0 4 -1 -1 -1 -1 0 8 2 -1 -1 -2 1 0 0 1 -1 0 -2 0 0 0 -1 0 0 0 0 0 0 0 0 2 1 0 0 0 0 -1 -1 0 0 -1 0 -1 -1 1 0 1 -1 45 37 -47 -2 51 -20 33 56 33 54 48 48 22 16 33 2 0 49 29 -143 27 15 -9 66 51 68 56 60 -13 61 53 8 49 -4 26 35 9 
424 440 456 462 465 467 455 451 442 421 -115 -274 -80 -15 51 83 1 2 0 1 1 1 1 2 0 12 85 73 -30 -48 79 2 0 4 -2 0 0 3 2 -1 0 2 0 1 2 0 2 1 0 1 1 0 0 0 3 0 -3 -3 1 1 3 -1 -3 0 -3 -1 -1 -1 1 -2 -2 0 0 0 -1 1 -1 -1 0 2 0 -2 -2 1 0 6 2 0 1 -1 2 0 -1 0 -1 1 -1 0 0 0 -1 -1 0 0 0 0 0 0 0 2 0 0 0 0 0 -2 0 0 0 -1 -1 0 -1 1 0 0 0 42 34 -50 -4 47 -23 31 53 31 52 47 45 21 14 31 -2 0 46 26 -148 23 12 -11 63 49 66 54 59 -15 58 50 6 46 -6 23 33 6 
424 440 454 460 463 465 453 449 438 418 -116 -277 -81 -16 51 84 1 1 1 2 0 1 0 2 0 12 85 73 -30 -49 79 2 1 2 -2 1 0 2 1 0 0 0 2 1 0 2 3 1 1 1 1 -2 1 0 2 3 -4 -5 2 0 5 -1 -2 -1 -2 0 0 0 0 -1 -1 -2 0 -2 1 0 0 1 -1 3 -1 -1 -2 -1 1 7 5 -1 1 -1 1 -1 -1 1 -1 0 -1 0 0 0 0 0 0 0 0 0 0 0 0 1 0 -1 0 0 0 -1 0 0 0 0 -1 0 -1 1 0 0 0 38 31 -53 -7 43 -27 28 50 27 50 45 43 18 12 29 -5 0 43 22 -153 19 9 -14 59 46 63 52 58 -18 56 48 3 43 -9 21 29 3 
424 439 453 460 462 464 452 449 437 417 -118 -281 -81 -16 51 84 1 0 0 1 0 2 0 2 0 13 87 74 -30 -49 80 1 0 5 -2 0 0 2 4 -1 0 0 3 0 1 0 2 1 1 1 0 -2 1 1 2 0 -3 -6 3 0 3 -2 -3 -1 -1 -1 -1 0 -1 1 -3 -1 0 -1 1 -1 -1 -1 0 4 0 0 0 0 0 6 6 -2 0 -2 2 -1 0 0 0 0 -2 0 0 0 -1 0 0 0 0 0 0 0 0 0 0 0 0 0 0 -1 1 0 0 0 0 0 -2 1 -1 0 0 35 28 -55 -9 39 -32 25 47 24 48 44 40 16 11 26 -7 0 40 19 -159 16 7 -16 56 43 61 50 56 -20 53 46 0 40 -11 18 26 0 
423 438 452 458 460 463 451 448 436 415 -120 -284 -82 -17 52 85 1 1 1 0 1 2 0 2 0 13 89 76 -31 -51 82 2 -1 4 -2 0 2 1 3 -1 0 3 -1 2 -1 1 2 0 0 2 2 -2 1 0 1 1 -5 -6 1 0 4 -1 -1 1 -1 0 1 0 1 -1 -2 -2 -2 0 -1 -1 -2 1 2 3 -2 0 0 0 -2 10 7 0 0 -1 3 -1 0 2 0 0 -1 0 0 0 -2 0 0 0 0 -1 0 0 0 0 0 0 0 0 0 -2 1 0 0 0 0 0 -3 1 -1 1 -1 32 25 -58 -11 36 -36 22 45 20 45 43 38 15 9 24 -10 0 37 17 -165 13 5 -18 54 40 59 49 55 -21 51 44 -2 36 -13 16 24 -1 
420 435 449 454 458 459 449 446 434 413 -120 -286 -82 -16 53 86 2 0 1 0 1 1 1 1 -1 14 91 77 -31 -52 84 1 0 4 -1 1 0 2 1 1 2 1 1 1 2 1 1 1 0 1 1 -3 0 1 3 -2 -6 -5 1 2 2 0 -1 0 -2 -1 0 -1 0 0 0 1 0 -1 0 -1 -2 -2 -2 4 0 -1 0 2 -1 8 5 -1 0 -2 3 0 0 1 0 0 -1 0 0 0 -1 -1 0 0 0 0 0 0 0 1 0 0 1 0 0 -2 1 0 0 0 0 -1 -3 1 0 0 -1 31 23 -59 -13 34 -39 21 44 18 44 42 36 13 8 22 -12 0 35 16 -171 11 2 -19 52 39 58 48 54 -23 49 42 -3 35 -14 15 23 -2 
416 432 447 450 456 456 447 444 432 412 -121 -287 -81 -16 53 88 1 1 0 1 0 0 0 2 -1 15 93 78 -31 -54 86 1 2 2 2 -2 1 2 2 -1 1 1 1 1 1 1 2 0 1 1 2 -4 2 1 1 1 -8 -7 4 -2 4 1 0 0 0 -2 1 -1 0 -1 -3 -1 -1 -1 0 -1 0 0 1 6 -1 1 1 0 -1 10 6 -2 0 -2 1 0 0 1 0 -2 0 0 0 0 0 0 -1 0 0 0 0 0 0 0 0 0 0 0 0 -2 0 0 0 -1 0 -1 -2 1 -1 0 -1 29 21 -61 -14 32 -41 19 42 16 43 41 34 12 6 21 -13 0 33 14 -176 10 0 -21 50 37 57 47 54 -23 48 42 -4 34 -15 14 21 -4 
413 430 445 448 453 453 445 442 430 409 -120 -288 -81 -15 54 89 1 1 1 1 1 1 0 1 2 16 94 79 -31 -55 87 3 2 2 -1 1 1 1 3 0 0 2 1 0 0 2 1 1 1 1 2 -4 2 -1 2 2 -9 -4 0 0 5 1 -1 -1 -1 1 0 0 1 1 -2 -2 0 -1 -1 -1 0 0 0 5 0 1 -1 0 0 10 5 -1 0 -2 1 0 1 1 0 -2 0 0 0 0 -1 0 0 0 0 0 0 0 0 0 0 0 0 0 0 -4 0 -1 0 -1 0 -2 -1 2 -1 1 -1 28 19 -64 -16 30 -44 17 39 13 41 40 32 10 4 19 -15 0 31 13 -183 8 -2 -23 48 35 54 45 53 -24 46 40 -6 31 -16 11 18 -6 
408 426 440 442 447 447 440 437 425 403 -120 -289 -80 -15 54 89 0 1 1 0 2 0 1 0 0 16 95 79 -32 -55 88 0 1 3 1 -1 2 1 2 0 0 1 1 0 2 1 4 0 1 2 1 -4 2 2 1 1 -7 -7 1 1 3 -2 0 1 0 -1 0 0 -1 -1 -3 -1 1 -1 1 0 1 1 0 5 -3 -1 0 -1 -1 11 8 0 -1 -1 1 0 1 0 0 -2 0 0 0 0 -1 -1 0 1 0 0 0 0 0 0 0 0 0 0 0 -3 1 -1 0 0 0 -3 -3 0 0 1 -2 27 18 -64 -16 28 -47 16 38 10 40 40 32 11 4 18 -16 0 30 12 -188 7 -3 -23 46 35 53 45 53 -24 44 39 -6 30 -18 10 18 -7 
403 420 433 436 441 441 433 430 418 396 -120 -290 -80 -15 54 89 2 1 -1 1 0 1 0 2 0 15 95 79 -32 -55 88 1 1 1 0 0 2 2 1 1 0 1 2 2 -1 2 0 0 2 0 3 -5 1 1 1 2 -11 -4 2 -1 4 0 0 1 1 1 1 0 -1 -1 -1 -2 0 0 -1 -2 -2 -1 0 7 1 2 0 1 0 10 5 -1 1 -1 1 0 1 1 1 -2 0 0 0 0 -1 0 0 1 0 0 0 0 0 0 0 0 0 0 0 -3 1 -1 0 0 0 -3 -3 0 0 1 -2 26 18 -64 -16 27 -48 16 38 9 40 41 31 11 4 18 -16 0 30 12 -192 6 -2 -22 46 34 53 45 54 -24 44 39 -6 29 -17 11 17 -6 
402 416 429 431 437 437 430 427 414 392 -119 -291 -80 -15 54 89 0 1 1 -1 1 0 0 1 0 15 95 79 -32 -55 88 3 0 1 0 2 1 1 3 0 2 2 0 1 1 1 0 1 1 1 2 -5 1 1 0 2 -10 -7 3 0 3 -1 -3 -2 0 0 1 1 2 1 -1 0 -1 1 -1 0 0 -1 0 6 0 1 1 -1 0 10 6 -3 -1 -1 1 0 0 0 1 -3 0 1 0 0 0 0 0 0 0 0 -1 0 0 0 0 1 0 0 0 -4 0 0 0 0 0 -3 -2 0 0 0 -1 24 16 -66 -17 26 -50 15 36 7 38 40 30 10 3 16 -17 0 29 11 -197 4 -4 -24 45 32 51 44 54 -25 43 38 -7 28 -18 10 16 -8 
400 412 425 427 433 433 426 424 411 388 -119 -292 -80 -15 54 90 1 1 0 2 -1 0 2 0 0 15 95 80 -32 -55 88 1 1 2 1 0 0 1 3 -1 0 1 1 1 0 1 -1 2 1 1 1 -8 1 0 0 1 -13 -4 2 0 2 1 0 0 1 0 -1 0 0 0 -1 0 1 1 -1 0 -1 0 0 8 2 0 0 -1 0 10 4 -1 0 0 1 0 0 0 1 -3 0 0 0 0 0 0 0 0 0 0 0 0 -1 -1 1 0 0 0 0 -4 0 -1 -1 0 0 -4 0 1 0 1 -1 22 13 -70 -19 24 -53 13 34 4 37 39 28 8 2 13 -19 0 26 7 -205 1 -6 -27 42 30 49 42 52 -26 40 37 -9 26 -19 7 14 -10 
394 406 418 420 426 425 420 416 404 381 -119 -294 -81 -16 54 90 0 2 0 1 1 -1 1 1 0 15 95 80 -33 -55 87 3 -1 1 0 2 1 2 2 0 0 2 -1 2 0 1 1 0 -1 2 1 -8 2 0 1 2 -13 -6 4 -2 3 0 -2 1 2 2 0 1 2 -1 -1 -1 0 2 0 1 -2 0 1 6 -3 -1 0 -1 0 10 5 -3 1 -2 -1 0 0 0 1 -3 0 0 0 0 0 0 0 1 0 0 0 0 0 -1 1 0 0 0 0 -5 1 -1 0 0 0 -4 0 2 -1 0 -1 22 12 -72 -18 22 -54 12 33 3 36 40 28 8 2 14 -19 0 25 6 -210 0 -7 -26 40 29 49 43 52 -26 39 37 -9 25 -18 7 14 -10 
389 400 412 414 419 419 413 410 397 374 -119 -297 -82 -17 53 90 0 1 -1 1 0 -1 0 1 0 14 94 79 -33 -54 87 3 0 0 0 1 3 -1 4 -1 0 0 0 2 0 0 0 0 3 0 2 -8 1 0 1 1 -14 -5 3 0 3 0 0 -1 3 1 0 1 -1 0 -2 -1 -1 -1 -1 -2 -1 -1 1 9 1 3 0 1 0 10 3 -3 0 -1 1 0 0 0 3 -2 -1 0 0 0 -2 0 0 0 0 0 0 0 0 -1 0 0 0 0 0 -6 0 0 0 0 0 -4 0 1 -1 1 -1 22 11 -73 -19 21 -55 12 33 2 36 41 27 8 3 14 -19 0 25 6 -214 -1 -8 -26 40 29 48 43 53 -25 39 36 -9 23 -18 8 13 -10 
386 397 409 411 417 416 410 409 395 372 -120 -299 -83 -18 53 89 1 -1 1 -1 0 0 0 0 0 14 93 79 -33 -54 86 3 -1 3 -1 1 1 1 3 -1 0 2 0 2 0 1 -1 1 1 0 3 -7 3 0 1 0 -15 -5 3 -1 2 1 -1 0 1 1 -1 -1 0 0 -2 -1 1 2 -1 0 -1 -1 1 6 0 2 1 2 0 13 4 -3 1 -1 0 1 0 0 2 -1 0 0 -1 0 -2 0 0 0 0 0 -1 0 0 0 0 1 0 0 0 -6 0 -1 0 0 0 -5 0 2 -1 0 0 20 9 -75 -22 19 -58 10 30 -1 34 39 24 6 2 12 -22 0 23 5 -221 -4 -10 -28 39 26 46 42 52 -27 37 34 -11 20 -19 5 11 -12 
382 393 406 407 414 413 408 406 393 370 -121 -300 -85 -19 52 89 0 -1 1 0 -1 0 0 0 1 15 93 78 -32 -54 85 4 -1 2 -1 2 2 1 2 -2 2 1 1 2 -2 4 0 -1 2 1 3 -9 2 1 1 2 -16 -5 3 0 3 1 -1 1 1 1 0 0 -1 -1 -1 -2 0 2 1 -1 0 2 1 7 -1 1 -1 0 -1 11 5 -2 0 0 0 1 0 1 2 -1 0 0 -1 0 -2 0 0 1 0 0 0 0 0 -1 0 1 0 1 0 -4 0 -2 0 0 0 -6 0 2 -1 0 0 18 7 -77 -24 16 -62 7 27 -5 31 37 21 5 0 9 -25 0 20 2 -229 -7 -12 -30 36 24 43 39 50 -30 35 32 -14 17 -21 2 8 -14 
377 389 402 402 409 409 404 403 389 366 -122 -300 -86 -20 51 88 0 1 0 0 1 0 -1 1 0 16 93 77 -31 -55 85 3 -1 2 0 2 -1 1 2 0 0 1 2 0 1 0 -1 1 2 0 3 -7 2 0 1 2 -15 -6 3 1 2 3 -1 1 1 1 0 -1 1 1 -1 0 0 1 0 -1 1 0 2 7 0 1 -1 0 -1 13 5 -3 0 0 -1 1 0 1 1 0 -1 -1 0 0 -2 0 0 2 0 0 0 1 0 -2 0 1 0 0 0 -4 1 -1 0 0 -1 -6 0 1 -1 0 0 16 5 -80 -25 13 -65 4 24 -8 27 35 19 3 -1 6 -28 0 17 -1 -236 -10 -15 -32 33 21 39 37 48 -32 31 30 -16 14 -23 0 6 -16 
375 388 399 400 407 406 402 401 387 363 -123 -300 -87 -21 51 88 0 0 0 1 -1 1 -1 0 1 16 93 77 -31 -55 85 1 -1 3 0 -1 2 0 3 -2 2 1 0 1 0 2 0 0 1 0 3 -7 3 -1 0 2 -16 -5 4 -2 4 -2 -1 0 0 -2 2 1 0 0 -2 0 0 2 1 1 0 0 1 7 -1 2 1 0 0 13 4 -4 1 0 1 1 0 0 1 0 -1 0 0 0 0 0 0 0 0 0 0 0 0 0 0 0 0 0 0 -5 0 -1 0 0 -2 -6 0 2 -1 0 2 14 2 -83 -26 10 -68 2 21 -9 25 34 17 1 -1 4 -29 0 15 -2 -243 -12 -16 -34 30 19 36 35 47 -34 29 29 -18 13 -24 -2 4 -18 
375 387 398 399 406 406 401 400 386 362 -123 -301 -88 -21 51 88 0 0 0 -1 0 0 0 0 0 17 94 77 -30 -56 86 3 -1 2 2 -3 2 1 2 -1 1 1 2 -1 1 0 -1 1 1 -1 3 -9 3 -2 1 1 -17 -4 1 0 5 0 -1 1 1 -2 1 0 -1 1 -3 -1 -1 3 0 -1 1 0 2 7 -1 2 -1 1 -1 12 4 -3 0 -2 2 0 0 1 1 0 0 0 0 0 -1 0 -1 2 0 0 0 0 1 -2 0 0 0 1 0 -5 2 -2 0 0 -2 -7 0 1 0 0 1 12 2 -85 -27 8 -70 1 20 -11 24 33 15 0 -1 3 -31 0 15 -4 -250 -13 -17 -34 28 19 35 35 48 -34 29 28 -18 11 -25 -4 3 -18 
372 385 395 397 404 405 399 398 384 360 -124 -301 -88 -21 51 89 -1 0 1 -1 -1 0 0 0 0 18 96 78 -30 -57 87 3 -3 2 3 -2 2 0 -1 3 -1 0 2 1 0 2 -1 1 0 1 1 -9 2 0 1 0 -19 -5 3 0 3 1 -1 2 -1 0 1 0 -2 -1 2 -2 1 3 2 1 -1 1 0 7 -1 1 0 0 0 14 4 -3 0 0 2 0 0 1 1 0 0 0 -1 0 -1 0 -1 1 1 0 0 0 0 -2 0 0 0 0 0 -6 1 -2 0 0 -1 -7 1 1 0 0 0 11 0 -88 -29 6 -72 -1 19 -14 23 32 13 0 -3 1 -32 0 13 -6 -257 -16 -18 -36 26 17 34 34 47 -34 27 26 -19 9 -26 -6 1 -19 
369 382 392 394 400 402 396 395 381 356 -124 -302 -88 -22 52 89 0 -1 0 0 0 -1 0 0 2 19 98 79 -30 -58 88 2 0 -2 4 -3 0 0 2 0 1 2 1 -1 0 1 -4 2 0 -1 3 -9 2 -1 0 0 -19 -5 2 -1 4 1 -1 -1 3 -1 2 -1 1 2 -1 0 -1 4 -1 -1 0 -1 1 7 2 2 0 1 -1 13 3 -4 0 -1 3 1 0 1 1 -1 0 0 -1 -1 0 -1 0 1 1 0 0 0 0 -2 1 0 0 0 0 -6 1 -2 0 0 0 -8 1 2 0 0 0 10 -2 -91 -30 5 -75 -2 17 -16 22 32 12 -1 -4 0 -32 0 11 -8 -265 -18 -19 -37 24 16 34 33 47 -35 25 25 -20 9 -26 -7 -1 -20 
366 379 388 391 396 399 393 392 378 352 -125 -302 -89 -22 51 90 -1 0 0 -1 0 0 0 -1 1 19 99 79 -30 -59 89 4 -3 -1 2 -1 3 0 0 0 0 1 0 1 -1 2 -1 -2 0 0 2 -8 1 0 -2 3 -20 -5 2 0 3 0 -1 1 2 1 2 0 -1 0 0 -1 0 3 1 -1 -1 0 0 7 0 2 2 0 1 14 2 -3 -2 1 1 1 0 0 2 0 0 0 -1 0 0 -1 0 1 0 0 0 0 0 -3 2 0 0 0 0 -6 0 -1 0 0 0 -8 2 2 0 0 0 9 -3 -94 -31 4 -77 -3 16 -17 21 32 12 -1 -3 -1 -32 0 10 -10 -272 -19 -21 -39 23 14 33 33 47 -35 25 24 -21 8 -26 -7 -1 -21 
362 375 383 386 392 395 388 388 374 348 -126 -304 -89 -22 51 90 0 0 -1 -1 0 0 0 -1 1 20 99 79 -30 -59 89 3 -1 0 2 0 1 -1 2 0 -1 2 0 0 0 1 -2 1 0 1 1 -9 1 -1 1 1 -22 -4 2 0 2 2 0 0 2 0 0 0 1 2 -1 0 1 3 -1 0 0 1 1 8 1 1 0 0 0 14 2 -3 0 -1 1 0 0 0 2 0 0 0 0 0 0 -1 0 1 0 0 0 0 0 -2 1 1 0 0 0 -6 0 -1 -1 1 0 -9 3 3 0 0 0 7 -5 -97 -32 1 -79 -5 15 -19 20 32 11 -2 -3 -3 -33 0 9 -12 -280 -22 -23 -41 22 13 31 32 47 -36 23 23 -22 6 -26 -9 -2 -22 
358 372 379 383 388 391 384 384 370 344 -127 -307 -90 -22 51 90 0 -1 0 1 -1 -1 0 0 1 19 99 80 -30 -59 89 2 -1 -1 3 0 1 -2 1 0 0 1 0 1 0 0 -1 -1 0 0 0 -9 2 0 -1 1 -21 -6 3 1 1 1 1 0 2 0 0 0 -1 1 0 1 1 3 1 0 -1 0 0 7 -1 2 2 1 2 15 3 -4 -2 -1 0 1 0 -1 3 -1 -1 0 -1 1 0 -1 0 1 0 0 0 0 0 -2 1 0 0 0 0 -7 0 -1 0 0 -1 -8 3 2 0 0 1 6 -7 -100 -34 -1 -81 -6 13 -21 18 32 9 -3 -4 -4 -34 0 6 -13 -287 -24 -25 -42 19 11 29 31 46 -37 21 22 -23 4 -27 -10 -3 -24 
356 370 377 380 385 389 382 382 367 341 -127 -309 -90 -22 51 90 0 -1 1 -1 0 0 0 0 0 19 99 80 -31 -59 89 4 0 -3 1 0 2 -1 0 0 -1 -1 2 0 -1 1 -3 0 0 -1 0 -8 2 -3 0 1 -22 -4 3 -2 5 1 -1 -2 1 0 -1 1 -3 0 0 -1 1 4 2 1 1 1 0 6 1 2 -1 1 1 15 1 -5 1 -2 2 2 0 -1 1 -1 -1 0 0 0 0 0 0 1 0 0 0 0 0 -2 1 0 0 0 1 -6 0 -1 0 0 -1 -10 3 3 0 0 1 5 -9 -102 -35 -3 -83 -8 11 -23 18 31 7 -4 -5 -6 -36 0 4 -15 -295 -26 -26 -43 17 9 27 30 45 -38 20 21 -24 3 -27 -12 -5 -26 
354 368 376 377 383 386 380 381 365 339 -128 -311 -90 -22 51 91 -1 0 0 1 -2 1 -1 0 2 18 98 80 -31 -58 89 4 -2 -2 2 -1 1 0 0 0 1 0 0 0 1 -1 -2 -1 -1 1 0 -9 1 0 0 2 -21 -6 2 0 2 0 -3 0 2 0 2 1 0 0 0 0 -1 3 1 0 -1 -1 0 6 0 1 1 0 2 16 3 -4 -1 0 0 0 0 -2 2 -1 0 0 -1 0 0 0 0 1 1 0 0 0 0 -3 0 0 0 0 0 -4 0 -2 0 0 -1 -9 2 2 0 0 0 3 -10 -104 -36 -5 -86 -8 10 -26 17 31 6 -5 -6 -7 -37 0 3 -18 -302 -28 -26 -44 16 8 26 30 45 -38 19 20 -25 1 -28 -14 -6 -28 
352 365 373 374 380 383 378 379 363 337 -129 -312 -90 -23 51 91 -1 0 0 -1 1 0 0 0 0 18 99 81 -32 -58 90 4 -2 -2 1 1 2 -1 -1 0 1 1 1 -1 0 0 -4 -1 0 0 2 -8 1 -2 0 2 -20 -6 3 0 1 0 -1 0 1 0 1 0 -1 0 0 0 -1 5 0 -1 -1 -1 1 4 0 3 1 1 1 16 3 -4 0 0 -2 0 0 -1 1 -1 0 0 -1 0 0 0 -1 1 1 0 0 0 0 -4 1 0 1 0 1 -4 0 -2 0 0 -1 -9 1 3 -1 0 0 1 -12 -107 -38 -7 -89 -10 9 -28 16 29 4 -6 -7 -8 -38 0 2 -21 -310 -31 -28 -45 14 7 24 29 44 -39 17 19 -27 0 -28 -16 -8 -29 
350 362 370 370 378 380 375 376 361 334 -130 -313 -91 -23 51 91 1 0 -1 0 0 0 0 0 1 17 99 82 -33 -58 91 3 -2 -1 2 -1 2 0 0 1 -1 -1 0 1 -1 0 -2 -2 0 -1 1 -10 2 -2 0 1 -21 -6 3 -2 3 0 -1 0 1 0 0 2 -1 0 1 -1 0 4 2 1 1 0 1 7 -1 2 0 1 1 13 2 -5 0 -2 0 0 0 0 1 -3 0 0 -1 0 1 0 0 1 0 0 0 0 0 -3 0 1 0 0 0 -4 1 -3 0 0 -1 -8 2 2 0 0 0 0 -14 -110 -39 -10 -91 -12 7 -30 14 29 3 -7 -9 -9 -39 0 0 -23 -317 -33 -30 -46 13 5 22 29 43 -40 16 18 -28 -1 -29 -18 -10 -29 
349 359 367 368 375 377 373 373 359 332 -131 -314 -92 -24 51 91 1 -1 0 1 -2 0 1 -1 0 17 100 83 -33 -59 92 2 -1 -1 -1 1 1 0 -1 0 1 0 0 0 0 0 -3 -1 -1 -1 2 -7 0 -4 1 1 -20 -6 2 0 1 0 -1 0 0 0 1 0 -1 0 1 1 -1 4 1 0 -1 -1 1 7 2 3 0 2 0 13 1 -5 1 0 0 0 0 0 0 -3 0 0 0 0 0 0 0 1 0 0 0 0 0 -3 0 1 0 1 0 -5 0 -2 0 0 -1 -8 2 2 0 1 0 -1 -15 -113 -39 -11 -93 -12 6 -32 13 29 2 -7 -10 -10 -40 0 -1 -24 -324 -34 -31 -47 12 5 21 28 43 -39 16 18 -28 -2 -29 -19 -11 -29 
349 358 365 366 373 375 372 372 357 330 -131 -315 -93 -24 51 92 0 1 0 -1 1 0 -1 0 2 17 101 84 -33 -59 92 3 -3 -1 2 -1 1 0 -1 2 -2 -1 0 -1 1 -1 -2 -1 -2 1 1 -8 -1 0 -2 1 -17 -7 1 -2 2 0 -1 1 0 0 0 2 0 1 1 0 1 3 2 0 0 0 2 5 0 0 2 -1 0 13 3 -2 -1 -1 0 0 0 0 0 -2 0 1 0 0 1 0 0 0 0 0 0 -1 0 -1 0 0 0 1 0 -4 -1 -2 0 0 0 -6 3 3 0 1 0 -2 -17 -115 -40 -13 -95 -13 5 -34 12 29 2 -8 -10 -11 -41 0 -1 -25 -330 -35 -32 -50 10 4 20 28 43 -39 15 17 -29 -3 -29 -20 -12 -30 
347 356 363 363 370 372 369 370 354 327 -132 -316 -93 -25 51 92 1 0 0 0 0 0 0 0 0 18 102 84 -33 -60 93 4 -3 -1 0 0 2 -1 -2 2 -2 -2 0 -1 0 -1 -2 -1 -1 -1 0 -8 0 -1 1 -1 -18 -5 0 -1 3 1 -1 1 -1 2 0 2 -2 -1 0 -2 -1 2 2 1 1 0 0 5 -1 0 0 2 1 13 3 -2 0 -2 1 0 0 0 0 -2 0 0 0 0 1 0 0 0 0 0 0 -1 0 -1 0 0 0 0 0 -3 0 0 0 0 0 -5 1 0 0 1 -1 -2 -18 -116 -40 -14 -98 -14 5 -35 12 30 2 -8 -9 -11 -41 0 -2 -26 -336 -36 -32 -50 9 4 20 28 44 -38 15 17 -28 -3 -30 -19 -12 -30 
345 354 360 361 367 370 366 367 352 324 -132 -317 -94 -26 50 92 1 0 1 0 0 1 -1 -1 2 19 103 84 -33 -61 94 1 -2 -3 0 0 0 -1 -2 2 -1 0 0 -1 -1 0 -4 1 -1 -1 0 -6 -1 -2 -1 2 -16 -7 1 0 2 -1 -2 -1 0 2 1 0 0 1 3 -1 0 4 0 1 0 0 0 4 2 1 0 0 2 12 2 -4 -1 0 0 0 0 0 0 -1 0 0 -1 0 1 -1 0 0 1 0 0 0 -1 -2 0 0 1 0 1 -2 0 0 0 0 0 -4 0 0 0 0 0 -3 -19 -118 -41 -15 -100 -14 5 -36 13 31 1 -7 -9 -11 -41 0 -3 -28 -342 -38 -32 -50 8 4 20 28 45 -38 14 16 -28 -3 -30 -20 -13 -30 
343 353 359 359 366 369 364 366 351 322 -133 -318 -95 -28 50 92 0 0 1 -1 0 0 -1 1 1 20 104 84 -32 -62 94 3 -4 -3 1 1 3 -2 -1 2 -2 -1 -1 0 0 0 -3 -1 -1 -1 -1 -6 0 -4 1 -1 -15 -7 1 -1 1 -1 -1 0 1 2 0 1 -2 -1 0 -2 0 4 1 2 1 1 1 4 1 2 -1 1 0 12 2 -4 1 -1 1 0 0 -1 0 -1 0 0 -1 0 2 -1 0 1 1 0 0 0 0 -3 1 0 0 0 1 -2 0 0 1 0 0 -3 1 0 0 0 -1 -6 -20 -122 -43 -17 -103 -16 2 -39 12 29 -1 -8 -9 -12 -42 0 -5 -31 -349 -41 -34 -52 5 2 18 27 44 -39 13 15 -29 -4 -31 -22 -14 -32 
341 351 357 357 364 367 363 365 349 320 -133 -320 -96 -28 49 92 0 0 0 1 -1 0 0 0 2 22 105 83 -31 -64 94 3 -4 -1 1 -2 0 -2 -2 2 0 -1 0 0 0 0 -4 -1 -2 -1 0 -6 -2 -2 0 0 -14 -5 0 -1 1 1 -2 1 -1 0 2 -1 -1 0 2 0 0 5 2 2 0 0 0 3 1 1 0 1 0 10 1 -2 0 0 1 0 0 -1 0 -1 0 0 -1 0 2 -1 0 1 0 0 0 0 -1 -2 1 0 0 0 1 -2 -1 -1 1 0 0 -1 1 1 0 0 0 -8 -23 -126 -46 -20 -107 -18 0 -41 10 28 -3 -10 -11 -14 -43 0 -8 -34 -356 -44 -37 -56 3 -1 16 25 43 -41 11 13 -31 -6 -32 -25 -16 -34 
337 347 352 352 359 363 359 360 345 316 -134 -321 -96 -29 49 92 0 1 0 0 0 0 0 -1 1 23 106 83 -30 -64 95 1 -4 -2 1 1 1 -1 -3 3 0 -2 -1 -1 0 -1 -4 0 -3 0 0 -6 -2 -1 -2 1 -11 -7 0 0 1 -1 -1 2 0 2 1 2 -1 0 2 0 -1 3 2 2 1 0 1 4 1 -1 0 -1 1 7 2 -3 -2 0 0 0 -1 0 1 -2 0 0 -1 0 1 -1 0 1 1 0 0 0 0 -3 0 0 0 0 0 -2 -1 0 0 0 0 0 1 0 0 0 0 -8 -24 -128 -46 -22 -109 -18 0 -42 9 28 -3 -10 -11 -15 -42 0 -9 -36 -361 -46 -37 -57 2 -1 16 26 43 -41 10 13 -31 -6 -32 -25 -16 -33 
332 341 346 347 354 357 354 355 340 311 -134 -323 -97 -29 49 93 0 0 0 -2 1 0 0 -1 1 23 106 83 -30 -65 95 2 -3 -3 3 0 1 -2 -1 2 -1 -1 -1 -2 0 -1 -4 -2 -2 0 0 -3 -2 -3 0 -1 -10 -5 -1 -1 1 -1 -2 -1 1 1 0 2 1 1 1 -1 -1 3 0 0 0 0 1 2 2 2 1 1 0 8 1 -2 0 -1 0 0 0 -1 2 -1 0 0 0 0 2 -2 0 0 0 0 0 0 0 -3 1 0 0 0 0 -1 -2 0 0 0 0 1 1 1 0 0 0 -8 -25 -129 -45 -22 -110 -18 0 -41 10 29 -2 -9 -9 -15 -40 0 -9 -37 -364 -46 -37 -57 2 0 16 27 44 -39 11 13 -30 -5 -30 -25 -16 -33 
329 338 343 343 351 354 351 352 337 308 -135 -324 -98 -30 48 93 0 0 0 0 -1 0 -1 0 1 23 106 83 -30 -65 95 1 -3 -2 1 -2 1 -2 -1 0 -1 -2 -2 0 0 -2 -3 -3 -2 -1 -1 -5 -1 -3 -1 0 -9 -5 -1 -2 2 0 0 1 1 0 0 1 -1 -1 1 1 0 4 2 1 -1 -2 -1 3 0 2 1 1 2 6 2 -3 0 -1 0 0 -1 -2 3 -1 -1 0 0 0 0 -1 -1 1 0 0 0 0 0 -3 0 0 1 0 0 0 -1 -1 0 0 0 1 1 1 0 0 1 -11 -28 -132 -47 -26 -113 -21 -2 -43 9 27 -5 -11 -10 -17 -42 0 -12 -41 -371 -49 -41 -60 -1 -3 14 26 42 -41 8 11 -33 -9 -33 -29 -18 -36 
326 335 340 340 348 351 348 350 334 305 -135 -325 -99 -31 48 94 0 0 0 0 0 0 0 -1 1 23 106 83 -30 -65 95 2 -3 -3 -3 7 1 -1 -2 0 1 -2 0 -2 1 0 -4 -1 -1 -1 1 -5 -1 -2 1 -1 -8 -6 -2 1 -2 0 0 1 2 5 -1 1 -2 -1 0 0 0 4 2 1 2 0 1 1 0 0 -1 2 0 5 2 -4 -3 -2 -4 0 0 -1 2 1 -2 1 0 0 0 0 0 0 0 0 0 0 0 -3 0 1 0 1 0 0 0 -2 0 -1 -2 2 1 1 0 0 3 7 -10 -114 -29 -8 -95 -2 16 -23 27 47 13 8 12 2 -23 0 7 -23 -356 -30 -22 -40 18 16 32 44 62 -21 28 31 -13 9 -13 -11 0 -17 
322 331 336 336 342 346 344 345 330 301 -136 -325 -100 -32 48 94 0 -1 1 0 -1 -1 0 -1 1 23 106 83 -30 -64 94 2 -4 -2 -4 6 0 -2 -1 0 1 0 -2 -3 2 -1 -2 -2 -2 -2 0 -3 -3 -1 -2 1 -5 -5 -2 -1 -2 0 -2 0 2 6 1 1 1 1 -1 0 -2 3 1 2 3 -1 0 2 1 0 1 1 1 2 0 -2 -3 -1 -4 0 0 0 3 4 -4 0 0 -1 0 -1 0 0 1 0 1 0 0 -3 0 0 0 0 0 0 0 -1 0 -1 -3 3 1 0 2 -1 6 36 19 -87 0 20 -67 27 45 9 56 76 42 38 46 31 7 0 36 5 -331 -2 8 -11 45 46 61 73 91 9 57 60 19 38 17 18 28 13 
320 328 333 332 339 343 341 343 328 297 -137 -326 -101 -33 48 94 0 1 -1 -1 0 -1 0 0 1 23 105 83 -30 -64 94 3 -5 -1 -5 4 0 0 -2 -2 0 -1 -2 -1 0 -1 -4 -2 -2 -1 -1 -4 -2 -2 -2 2 -4 -4 -3 -1 -1 1 -2 3 1 5 0 2 1 -2 -1 0 -1 4 2 2 1 0 -1 0 1 0 0 0 3 1 1 -1 -2 -1 -3 0 0 0 2 6 -5 0 -1 0 0 -1 -1 1 1 0 2 0 1 -2 0 -1 0 0 0 0 0 0 -1 0 -3 6 1 0 3 -1 7 24 7 -100 -12 7 -80 15 33 -1 44 64 31 27 38 18 -4 0 23 -8 -345 -15 -4 -24 32 36 49 63 80 -1 45 49 8 27 5 7 17 3 
319 328 331 331 339 342 341 342 327 296 -137 -327 -102 -33 48 94 -1 0 0 1 0 0 0 -1 1 22 105 83 -30 -64 94 1 -5 0 -3 4 2 -2 -1 0 -2 -2 -2 -2 1 -1 -3 -3 -3 0 -1 -2 -3 -1 -2 1 -1 -4 -2 -2 -1 -1 -1 2 1 4 -1 2 -1 0 -1 0 0 3 2 1 0 0 0 0 1 0 2 -1 1 -1 0 -1 -2 -2 -3 0 0 1 1 5 -4 0 0 0 0 -1 0 0 0 0 1 0 0 -2 0 0 0 0 1 0 -1 0 -1 0 -4 8 2 0 2 0 5 1 -18 -125 -35 -17 -105 -8 10 -25 22 43 8 4 15 -6 -28 0 0 -33 -371 -40 -28 -49 9 12 25 41 58 -23 21 26 -16 3 -18 -17 -7 -20 
319 328 331 331 338 341 339 341 326 296 -138 -329 -103 -34 48 95 1 0 0 0 0 1 -1 0 0 22 105 83 -31 -64 94 0 -4 -1 -1 3 0 -1 -2 0 -1 0 -2 -1 -1 -1 -5 -1 -1 -1 -1 -2 -2 -1 -1 -1 0 -4 0 -1 -2 -1 -1 2 1 2 -2 1 0 -1 0 -1 -1 4 0 1 1 1 1 -1 2 1 0 0 0 -3 0 -2 -1 -1 -2 0 0 1 0 3 -3 1 -1 0 0 -1 0 0 0 1 0 0 0 -2 0 0 1 0 0 0 -1 0 -1 0 -3 10 2 0 1 0 4 -4 -22 -130 -40 -21 -109 -11 7 -29 19 41 5 1 10 -9 -32 0 -4 -38 -376 -44 -32 -53 5 8 22 38 55 -25 18 22 -19 0 -21 -20 -11 -23 
319 327 330 329 336 340 337 340 324 294 -138 -331 -103 -34 48 95 0 1 0 0 -1 0 0 0 0 22 106 84 -31 -64 95 2 -4 -1 -3 3 -2 -1 -2 0 -1 -1 -2 -1 -1 -1 -3 -3 -1 -1 -1 0 -4 -2 -3 0 4 -5 -2 -2 0 1 -2 1 0 3 -1 0 1 0 0 0 0 4 2 1 1 1 1 -1 2 1 0 -2 0 -5 0 -1 -2 -1 -1 -1 0 0 0 2 -2 0 0 0 1 -1 0 0 0 0 0 0 0 -3 1 0 0 0 0 1 -2 0 -1 0 -2 12 2 0 0 0 5 -6 -24 -132 -40 -23 -112 -13 5 -29 18 41 4 2 10 -10 -32 0 -6 -41 -379 -46 -34 -55 4 7 22 38 55 -26 17 22 -20 0 -21 -21 -12 -24 
319 326 329 328 335 339 337 340 323 294 -139 -333 -104 -35 48 96 0 1 -1 1 0 1 -1 0 0 23 107 85 -31 -65 96 2 -5 0 -3 1 0 -3 -1 -1 0 -2 -2 0 -2 0 -4 -2 -2 -2 2 -1 -4 -2 -2 0 7 -5 -2 -2 -1 1 -1 0 -1 1 0 0 -1 0 1 -1 -1 4 1 2 0 -1 2 0 3 0 0 1 -1 -8 0 0 0 -1 -2 0 -1 0 0 1 -2 -1 0 0 1 0 0 1 0 0 0 0 0 -3 1 0 0 0 -1 0 -3 0 0 0 -1 15 2 0 0 0 3 -10 -29 -139 -44 -28 -118 -17 0 -33 14 38 1 -1 7 -13 -36 0 -13 -47 -384 -52 -39 -61 -1 3 19 35 52 -28 14 19 -24 -4 -25 -26 -16 -29 
318 326 328 328 334 338 336 339 323 293 -140 -336 -106 -36 47 96 0 0 0 0 0 0 1 0 1 24 109 85 -30 -67 97 1 -5 1 -2 1 -1 -2 -2 0 -1 -2 -2 -1 -1 -1 -2 -2 -3 -1 -1 0 -4 -2 -2 0 10 -5 -3 0 -1 0 -2 1 -1 1 -1 1 0 0 1 0 -1 3 2 2 0 0 1 -1 1 -1 0 -1 0 -9 1 0 -1 1 0 0 -1 0 -1 2 -2 -1 0 0 0 0 0 0 1 0 0 0 0 -2 0 0 0 0 -1 2 -3 1 0 1 0 17 2 -1 1 0 2 -14 -34 -144 -48 -34 -124 -21 -3 -37 11 35 -1 -4 5 -16 -40 0 -17 -53 -389 -57 -42 -66 -6 -1 16 32 49 -31 11 16 -26 -8 -29 -29 -19 -32 
317 325 326 326 333 336 335 337 321 291 -140 -339 -107 -37 47 96 -1 1 0 0 1 -1 1 -1 1 26 111 85 -30 -68 98 1 -5 2 -2 1 0 -1 -2 -1 -1 -2 -2 -2 -2 0 -4 -2 -3 -2 0 -1 -4 -3 -1 0 9 -3 -2 -3 2 -1 -2 2 -2 -1 -2 3 1 1 0 -1 0 3 1 1 0 0 0 -2 1 0 0 0 0 -11 -1 0 1 -1 0 0 0 0 -2 1 -1 0 0 1 1 0 0 1 0 0 0 0 1 -2 0 0 0 0 -1 1 -2 1 0 0 0 18 2 -1 1 0 2 -17 -36 -147 -50 -37 -126 -22 -4 -39 10 34 -3 -5 3 -17 -42 0 -19 -56 -391 -59 -44 -68 -8 -3 15 32 48 -32 10 15 -27 -9 -30 -31 -20 -33 
316 323 325 324 331 335 334 335 320 289 -141 -341 -108 -38 47 97 1 0 0 0 -1 0 0 0 1 27 112 85 -29 -69 99 0 -6 3 -3 -1 -1 -2 -1 1 -2 -2 -2 0 -1 -2 -4 -2 -2 -3 1 -1 -4 -2 -4 0 13 -5 -3 -2 -1 -1 -2 2 -3 0 -1 1 0 1 2 0 0 3 1 1 0 -2 1 0 3 1 1 -1 -1 -14 0 0 -1 1 1 -1 0 1 -1 0 0 0 0 0 0 0 0 0 0 0 0 0 0 -2 0 0 0 0 0 1 -1 0 0 0 0 20 3 0 0 0 1 -21 -40 -151 -53 -40 -129 -25 -7 -42 9 33 -5 -7 0 -20 -44 0 -22 -60 -393 -63 -48 -71 -11 -5 12 30 46 -33 8 13 -30 -12 -32 -35 -23 -34 
315 321 323 321 329 333 332 334 318 287 -141 -343 -109 -39 47 97 1 -1 2 -1 0 1 0 0 -1 27 113 85 -29 -70 99 0 -7 2 -2 1 -2 -2 -1 -2 0 -1 -3 -2 -1 1 -3 -3 -2 -2 0 -1 -4 -3 -2 1 15 -4 -4 -2 2 0 -3 2 -1 -1 -2 0 1 0 -1 0 1 3 2 1 1 0 -2 -1 1 1 0 0 1 -14 2 1 0 0 1 -2 -1 1 -2 -2 0 1 0 0 1 0 0 0 0 0 0 0 0 -1 0 0 0 0 0 1 -2 0 0 2 0 23 1 0 0 0 0 -26 -45 -157 -56 -45 -136 -29 -11 -46 6 30 -7 -10 -5 -24 -48 0 -26 -65 -397 -68 -52 -76 -15 -9 9 27 42 -36 5 9 -34 -15 -36 -40 -27 -37 
314 320 321 320 327 332 330 333 316 286 -142 -344 -109 -39 47 98 0 2 0 0 1 -1 0 1 0 28 113 85 -28 -71 99 1 -6 2 1 -2 1 -2 -3 1 -2 -2 -3 0 -1 -2 -7 -2 -1 -3 -1 0 -5 -2 -2 -2 15 -4 -2 -1 -2 -2 -1 3 -2 -1 -1 3 0 -1 2 -1 -1 5 0 1 0 -2 -1 -3 4 1 1 1 1 -15 -1 0 -1 1 0 -1 0 1 -1 -3 0 1 0 0 0 0 0 0 0 0 0 0 -1 -2 0 1 0 1 1 4 -1 0 0 1 0 22 0 -1 1 0 0 -30 -49 -160 -60 -49 -142 -32 -14 -50 4 27 -10 -12 -9 -27 -51 0 -30 -71 -402 -72 -56 -80 -18 -12 6 24 38 -38 3 6 -36 -19 -40 -43 -30 -40 
312 319 318 317 325 328 328 330 314 283 -142 -346 -110 -40 47 98 0 0 2 -1 0 0 1 0 0 28 114 85 -28 -71 99 0 -4 3 -1 -2 -1 -2 0 -3 0 -2 -3 -1 -1 -1 -4 -3 -2 -3 0 1 -5 -3 -2 -1 19 -6 -4 -2 1 0 -1 2 -1 -3 -1 2 1 0 0 1 1 4 2 2 1 -1 0 -2 2 0 0 1 0 -16 1 0 -1 -2 1 -1 0 2 -1 -3 0 1 0 0 0 0 1 0 0 0 0 0 -2 -2 1 1 0 1 1 4 -2 0 0 0 0 22 0 -1 1 1 0 -32 -53 -163 -63 -52 -145 -34 -16 -53 3 26 -13 -14 -11 -30 -53 0 -32 -75 -404 -75 -58 -84 -21 -13 4 22 37 -39 1 4 -38 -21 -42 -46 -33 -41 
308 315 314 312 320 324 323 325 309 278 -143 -348 -111 -40 47 99 0 0 0 1 0 0 0 0 0 28 114 85 -28 -71 100 1 -7 4 -1 -3 -2 -2 -1 -2 -2 -1 -3 -1 -2 -2 -5 -3 -3 -1 -1 0 -5 -3 -4 1 18 -3 -3 -3 0 1 -2 3 -2 -3 -2 1 1 0 1 1 1 4 1 1 -1 -1 0 -1 3 1 1 -2 1 -20 -1 1 1 3 1 0 0 2 -2 -4 2 1 0 0 1 1 0 0 0 0 0 -1 0 -2 0 0 0 1 0 3 -2 0 0 0 0 24 0 -2 1 1 -1 -34 -56 -168 -65 -56 -150 -36 -18 -55 1 26 -14 -16 -13 -31 -55 0 -35 -79 -406 -77 -61 -88 -24 -15 3 22 38 -39 0 4 -39 -22 -45 -49 -35 -42 
305 311 311 309 316 320 320 321 305 275 -144 -350 -112 -41 47 99 0 2 0 0 1 -1 1 0 -1 28 114 86 -29 -71 100 0 -5 3 -3 -2 -1 -1 -1 -2 -1 -1 -3 -2 -2 -1 -3 -6 -2 -2 -1 -1 -6 -2 -3 0 22 -5 -3 -3 -1 -1 -2 2 -2 -2 -1 2 2 1 0 0 0 5 3 1 0 0 -1 -2 0 0 1 0 1 -21 2 2 1 2 0 0 0 2 -3 -3 2 0 0 0 0 2 0 1 0 0 0 0 -1 -3 0 0 0 1 0 2 -2 0 1 1 0 26 0 -2 0 0 -1 -38 -59 -174 -68 -61 -155 -39 -20 -57 -1 25 -15 -17 -14 -33 -58 0 -39 -85 -408 -81 -64 -92 -28 -18 1 20 37 -41 -2 3 -42 -25 -48 -52 -38 -44 
302 309 307 306 313 316 316 318 302 272 -145 -352 -113 -42 46 99 0 2 0 0 0 0 0 1 -1 28 114 86 -29 -71 100 0 -4 1 1 -3 -3 -1 -2 -2 0 -3 -1 0 -4 0 -4 -4 -1 -4 -1 -2 -5 -3 -2 -2 22 -5 -3 -4 0 2 -1 2 -1 -3 0 1 1 0 2 0 1 4 3 1 0 0 -1 0 2 0 -1 1 0 -22 2 2 2 0 2 0 0 1 -2 -3 1 1 0 0 1 1 0 0 0 0 0 0 -1 -2 0 0 0 0 0 2 -1 2 0 2 0 28 0 -3 0 0 0 -41 -64 -180 -70 -66 -161 -42 -23 -59 -3 23 -17 -19 -16 -36 -60 0 -42 -90 -410 -85 -68 -96 -31 -21 -1 18 35 -44 -5 0 -46 -27 -52 -54 -41 -47 
300 305 303 301 309 312 312 314 298 268 -147 -354 -115 -44 46 99 1 1 0 0 0 1 0 0 -1 28 114 86 -29 -71 100 1 -5 1 -1 -3 0 -2 -1 -2 -1 -3 -3 -2 -2 -1 -4 -6 -3 -2 -2 -1 -5 -3 -4 0 23 -3 -5 -3 0 0 -1 2 -1 -2 1 5 2 1 0 0 -1 4 3 1 0 0 0 -2 1 2 2 0 2 -24 -1 1 0 1 0 0 0 0 -1 -2 2 0 0 0 1 0 0 0 0 0 -1 0 -1 -2 0 1 0 0 0 0 -2 2 0 1 0 29 0 -3 0 0 0 -44 -69 -187 -74 -71 -167 -46 -27 -62 -5 21 -21 -21 -18 -40 -62 0 -47 -96 -413 -89 -72 -101 -35 -25 -4 16 34 -46 -8 -3 -49 -30 -56 -58 -44 -50 
300 305 302 300 307 312 310 313 297 267 -148 -356 -116 -45 45 99 1 1 1 1 -1 0 0 0 0 28 114 85 -28 -71 100 -1 -3 1 -2 -1 -4 0 -1 -3 -2 -3 -3 -2 -2 0 -4 -6 -2 -4 -1 -1 -6 -3 -4 -1 24 -3 -5 -4 -1 2 0 3 1 -1 -2 2 2 0 -1 0 2 6 5 1 2 0 -1 -2 1 1 0 0 0 -24 1 3 1 1 1 0 0 0 0 -1 1 0 0 0 0 0 0 0 0 0 0 0 -1 -3 0 1 0 0 1 1 -2 1 0 1 0 30 0 -2 0 0 0 -48 -74 -194 -77 -77 -173 -50 -30 -65 -7 19 -23 -23 -19 -43 -64 0 -51 -104 -416 -93 -76 -107 -39 -27 -7 14 32 -48 -11 -5 -52 -33 -60 -63 -47 -53 
302 306 303 301 308 312 312 314 298 267 -149 -359 -117 -46 45 99 1 1 0 0 1 -1 1 0 0 29 114 86 -28 -72 100 0 -4 0 -1 -5 -3 -2 -1 -3 -2 -3 -2 -4 -1 -3 -5 -3 -4 -4 -2 -3 -6 -3 -3 -3 24 -5 -3 -5 -2 2 -1 1 0 -2 1 3 2 2 -1 1 0 5 3 2 1 -1 -1 0 2 0 1 1 1 -25 2 2 3 1 2 1 0 0 0 0 0 0 0 0 0 0 0 0 1 0 1 0 -1 -3 0 1 0 0 0 1 -2 1 0 1 0 29 1 -2 0 0 1 -52 -80 -200 -81 -83 -179 -54 -34 -67 -9 18 -26 -26 -20 -47 -66 0 -56 -111 -419 -97 -80 -113 -44 -29 -9 12 30 -51 -13 -8 -56 -37 -64 -68 -51 -56 
302 306 303 301 308 312 312 314 298 267 -149 -361 -118 -47 44 99 0 1 0 0 -1 1 0 1 -1 30 116 86 -28 -73 101 0 -4 -2 1 -3 -3 -2 -1 -3 -2 -3 -2 -2 -5 -1 -6 -4 -5 -2 -4 -2 -6 -4 -5 -1 22 -3 -4 -3 -3 1 -2 1 1 -2 0 3 2 2 1 -1 0 7 4 2 0 2 -1 -2 2 0 1 -2 1 -26 -2 2 2 3 1 1 0 0 1 0 0 0 1 0 0 0 0 0 0 0 1 0 -1 -3 0 0 0 0 0 1 -1 0 1 1 0 29 0 -1 -1 0 2 -57 -86 -207 -85 -89 -186 -59 -39 -70 -12 15 -30 -29 -23 -51 -70 0 -62 -118 -423 -103 -86 -119 -51 -34 -12 9 27 -55 -17 -12 -62 -42 -69 -74 -55 -60 
300 304 301 299 306 310 310 313 296 265 -150 -364 -119 -48 44 99 1 1 0 0 1 0 -1 0 0 31 117 86 -27 -74 102 -1 -3 -1 1 -6 -2 -3 -2 -2 -3 -3 -5 -1 -3 -3 -5 -5 -4 -4 -2 -3 -6 -4 -4 -2 26 -5 -4 -5 -1 1 0 0 0 -3 -1 4 3 1 1 0 1 5 4 4 1 0 1 0 2 0 0 0 -1 -27 2 3 3 3 4 0 0 -1 1 -1 1 0 1 1 0 0 0 0 1 0 0 1 0 -3 0 0 1 0 0 0 -1 0 1 2 0 29 2 -1 0 -1 3 -63 -92 -215 -90 -96 -192 -63 -43 -73 -15 12 -33 -32 -27 -56 -73 0 -68 -126 -426 -108 -91 -126 -57 -40 -15 7 24 -59 -22 -15 -66 -46 -74 -80 -59 -65 
298 302 299 297 304 308 307 311 294 264 -150 -366 -120 -50 44 100 0 1 0 1 0 1 -1 0 -1 33 119 86 -27 -76 103 -2 -4 0 1 -6 -2 -3 -2 -4 -1 -4 -4 -1 -5 -3 -6 -6 -3 -3 -3 -4 -6 -3 -4 -3 25 -3 -6 -4 -1 1 1 1 0 -5 0 3 2 1 2 1 -1 7 5 2 0 2 2 -1 1 2 2 1 1 -27 2 5 2 2 3 0 0 -1 0 -2 0 1 0 1 0 1 0 0 1 1 0 0 0 -4 0 0 1 0 0 1 0 0 0 1 0 28 0 -3 0 -1 3 -68 -99 -222 -95 -102 -200 -67 -47 -77 -18 10 -37 -35 -30 -61 -76 0 -72 -134 -430 -113 -96 -131 -62 -44 -19 5 21 -63 -25 -17 -70 -49 -81 -85 -63 -68 
297 301 297 295 302 306 306 310 293 263 -151 -368 -121 -50 44 100 1 1 0 0 0 1 0 1 0 34 120 87 -27 -77 104 -2 -3 -2 1 -6 -4 -3 -2 -2 -4 -3 -3 -3 -4 -3 -6 -5 -4 -3 -4 -1 -8 -2 -7 -3 26 -4 -2 -7 -3 2 -1 0 0 -3 -1 3 4 3 2 1 1 8 5 3 2 2 1 -2 3 0 2 -1 0 -28 -1 2 2 2 2 0 1 0 0 -1 1 0 0 0 0 1 0 0 1 0 0 0 0 -4 -1 0 0 0 0 1 0 1 0 1 0 29 0 -3 0 0 1 -74 -105 -231 -100 -110 -208 -72 -52 -82 -22 7 -42 -38 -33 -67 -81 0 -79 -143 -434 -118 -102 -139 -67 -47 -23 2 19 -66 -29 -20 -76 -53 -88 -91 -68 -71 
295 299 294 292 299 303 303 307 289 259 -152 -370 -122 -51 44 101 1 0 1 0 0 0 0 1 -1 34 121 87 -26 -78 104 -3 -3 -1 -2 -4 -4 -1 -3 -4 -2 -5 -4 -2 -5 -2 -7 -6 -4 -4 -4 -4 -8 -3 -3 -7 26 -3 -5 -5 -4 1 -1 2 -1 -2 0 5 5 1 2 1 2 7 5 3 2 3 1 0 3 1 1 1 -1 -30 -1 5 3 1 4 0 0 0 -1 0 2 0 1 0 0 1 0 0 1 0 0 1 0 -4 0 0 0 0 0 1 -2 2 0 0 1 29 2 -2 0 1 3 -80 -113 -240 -105 -118 -216 -78 -58 -85 -25 5 -48 -41 -37 -74 -86 0 -85 -153 -437 -124 -108 -148 -74 -52 -26 -1 17 -70 -35 -24 -83 -57 -94 -97 -73 -75 
292 295 291 288 295 300 300 303 286 256 -152 -372 -123 -52 43 101 0 0 0 1 -1 0 0 0 0 35 122 87 -26 -79 105 -2 -3 -3 0 -6 -2 -4 -2 -5 -2 -6 -2 -4 -4 -4 -5 -6 -5 -4 -4 -4 -8 -4 -5 -5 25 -1 -6 -7 -3 2 2 1 1 -3 1 6 1 4 2 3 1 6 7 3 1 1 1 1 3 0 2 1 0 -30 -2 5 3 2 4 0 1 0 -1 0 1 2 1 0 0 2 1 0 1 0 0 0 0 -4 0 0 0 0 0 0 -3 2 0 0 2 29 3 -2 0 0 3 -87 -122 -251 -111 -126 -225 -84 -64 -89 -29 3 -53 -46 -40 -79 -90 0 -91 -163 -442 -130 -115 -158 -82 -58 -29 -5 14 -75 -40 -27 -89 -62 -101 -104 -79 -80 
288 291 287 284 291 296 297 300 284 253 -153 -374 -123 -52 43 101 1 0 1 0 0 -1 0 0 0 35 123 88 -26 -79 105 -2 -4 -2 -2 -4 -3 -3 -5 -3 -2 -5 -4 -2 -6 -3 -6 -5 -5 -4 -5 -4 -6 -5 -4 -4 25 -1 -5 -6 -5 1 0 2 -1 -1 0 5 3 3 5 2 1 7 6 4 1 3 1 0 2 1 1 1 3 -30 -1 4 5 3 2 0 1 0 0 0 2 2 0 1 1 2 0 -2 2 0 0 0 0 -3 -1 0 0 0 0 -1 -3 2 1 0 1 29 4 -3 -1 0 3 -94 -132 -262 -118 -136 -234 -91 -70 -94 -32 0 -57 -50 -43 -84 -93 0 -99 -173 -447 -137 -122 -167 -89 -63 -34 -8 12 -80 -44 -30 -96 -66 -110 -111 -84 -85 
283 286 282 279 287 291 293 296 280 250 -154 -375 -125 -53 43 102 0 0 0 -1 0 -1 1 -1 0 36 123 88 -26 -79 106 -3 -3 -4 -1 -4 -5 -2 -4 -4 -3 -4 -2 -6 -5 -3 -7 -7 -4 -6 -4 -2 -9 -3 -7 -5 25 -2 -5 -7 -5 2 0 1 1 -1 0 4 6 6 3 2 3 9 6 2 4 2 1 -1 4 1 2 1 0 -30 -2 5 3 4 4 0 0 -1 -1 0 2 1 1 1 3 1 0 0 0 0 0 1 0 -3 0 0 0 0 0 -1 -3 2 1 2 0 27 5 -3 0 0 3 -101 -139 -272 -124 -144 -242 -97 -76 -99 -35 -3 -61 -53 -46 -91 -97 0 -107 -183 -452 -144 -130 -176 -97 -69 -38 -11 10 -86 -48 -34 -103 -69 -118 -119 -89 -90 
279 282 277 275 282 287 289 292 276 246 -155 -377 -126 -54 42 102 0 1 -1 0 -2 0 -1 0 -1 36 123 88 -26 -79 105 -4 -4 -5 -2 -5 -5 -4 -2 -4 -5 -7 -5 -4 -4 -5 -6 -7 -5 -5 -5 -5 -7 -5 -6 -5 23 -1 -5 -6 -7 1 1 0 3 1 1 6 4 4 2 2 2 7 7 5 3 3 2 1 2 3 3 2 2 -31 -3 3 4 4 2 0 0 -2 0 1 1 0 2 1 2 1 0 0 0 0 0 1 0 -4 0 1 0 1 0 -2 -4 2 0 2 0 28 5 -3 0 -1 4 -109 -148 -284 -130 -154 -252 -104 -83 -103 -39 -5 -66 -57 -48 -98 -101 0 -116 -195 -457 -151 -138 -187 -104 -74 -42 -14 7 -92 -52 -38 -110 -74 -127 -127 -95 -96 
275 278 273 271 278 284 285 289 273 243 -156 -379 -127 -55 42 102 0 -1 1 0 -1 -1 0 1 -2 35 123 87 -26 -79 105 -3 -4 -4 -3 -4 -6 -5 -2 -5 -4 -5 -6 -3 -5 -4 -5 -8 -4 -6 -5 -4 -8 -4 -6 -7 23 0 -7 -7 -6 4 1 0 2 0 1 4 5 4 3 3 3 8 8 5 4 3 2 0 2 3 3 3 1 -29 -2 6 4 3 3 0 0 -3 1 1 1 0 2 2 0 0 1 0 1 1 0 1 0 -3 -1 0 0 1 0 -2 -3 2 0 1 0 25 6 -3 -1 0 4 -117 -159 -296 -137 -165 -261 -110 -89 -108 -44 -8 -73 -62 -52 -106 -105 0 -125 -207 -464 -158 -146 -197 -113 -80 -47 -18 4 -98 -58 -43 -119 -81 -136 -136 -100 -102 
273 276 271 268 275 281 283 287 270 241 -157 -380 -128 -57 41 102 -1 0 1 0 0 -1 -1 0 0 35 122 87 -26 -79 105 -4 -3 -7 -1 -5 -3 -6 -4 -5 -4 -6 -6 -3 -6 -5 -6 -8 -6 -6 -6 -3 -9 -4 -6 -8 21 0 -6 -7 -6 3 4 1 3 0 1 6 3 4 5 4 3 9 8 6 3 3 3 -1 2 1 3 3 1 -27 -3 6 4 3 4 1 0 -2 1 1 1 0 1 2 0 1 1 0 1 1 0 1 1 -3 -1 0 0 0 0 -2 -2 1 1 1 1 25 6 -3 -1 0 3 -125 -169 -308 -145 -176 -272 -117 -97 -115 -49 -11 -80 -67 -56 -114 -110 0 -134 -219 -470 -166 -155 -208 -122 -87 -52 -21 0 -105 -65 -47 -128 -87 -146 -146 -107 -108 
271 274 269 266 273 278 280 285 268 239 -158 -381 -130 -58 41 102 0 0 0 0 1 -1 -1 0 -1 36 122 86 -25 -79 104 -4 -4 -5 -3 -5 -5 -4 -5 -4 -5 -6 -5 -5 -6 -6 -7 -6 -7 -6 -6 -3 -8 -5 -6 -6 21 1 -6 -8 -7 2 2 1 1 0 0 6 5 4 5 3 2 8 7 6 3 4 4 0 4 1 3 3 3 -27 -3 6 6 4 2 1 1 -2 1 0 1 0 1 2 1 2 1 0 1 2 0 0 1 -4 -1 0 0 1 0 0 -2 2 1 1 1 23 4 -4 -1 0 3 -133 -179 -319 -153 -187 -284 -125 -106 -121 -54 -14 -87 -73 -62 -122 -115 0 -143 -232 -477 -174 -164 -219 -132 -95 -58 -25 -4 -112 -71 -51 -137 -92 -157 -155 -114 -114 
269 272 267 264 271 276 278 283 267 238 -159 -382 -131 -59 40 103 0 -1 0 0 -1 -1 0 -2 0 37 122 86 -25 -79 104 -4 -2 -9 -3 -6 -6 -4 -4 -8 -5 -5 -7 -6 -6 -3 -6 -8 -6 -7 -6 -3 -8 -5 -7 -6 21 1 -7 -8 -5 3 1 0 5 -1 1 5 6 3 1 3 5 8 7 6 6 5 2 0 3 3 3 3 2 -26 -2 6 4 4 5 0 2 -2 1 -2 2 1 1 1 1 2 1 0 1 0 0 1 1 -4 -1 0 0 1 0 0 -2 1 2 1 1 21 4 -4 -1 0 2 -143 -190 -331 -161 -198 -296 -134 -113 -129 -59 -18 -94 -77 -69 -130 -121 0 -152 -245 -485 -181 -173 -231 -141 -101 -64 -29 -8 -120 -77 -56 -147 -99 -168 -165 -122 -121 
267 269 264 261 268 273 276 280 265 236 -160 -383 -132 -60 40 103 -1 0 0 1 -1 -1 -2 1 -1 38 123 86 -24 -80 104 -4 -4 -8 -3 -5 -6 -6 -4 -5 -4 -6 -6 -4 -7 -5 -6 -7 -7 -7 -6 -2 -8 -5 -6 -7 19 1 -6 -7 -9 3 1 0 4 1 3 5 6 5 5 3 2 9 8 7 4 5 3 -3 2 2 4 4 3 -23 -3 6 5 5 4 0 2 -3 2 -2 3 1 2 1 0 2 1 0 0 1 1 2 0 -3 -1 0 0 1 0 0 -2 0 1 1 2 20 3 -4 -1 0 0 -151 -201 -342 -168 -209 -307 -141 -121 -138 -64 -21 -101 -81 -73 -139 -125 0 -161 -257 -492 -189 -183 -242 -150 -107 -70 -34 -10 -127 -83 -60 -156 -106 -179 -176 -129 -128 
264 267 262 258 265 272 274 279 264 235 -161 -385 -133 -61 40 103 0 0 0 -1 0 -1 0 -1 0 39 124 86 -24 -82 105 -5 -5 -7 -4 -7 -5 -6 -4 -7 -4 -8 -6 -6 -6 -5 -6 -7 -6 -9 -6 -3 -8 -5 -7 -8 20 1 -6 -9 -8 2 1 -1 2 -1 2 8 5 5 4 5 4 7 8 7 7 4 3 -1 3 2 3 4 2 -25 -2 7 6 4 4 0 0 -3 2 -1 4 1 1 2 0 3 1 0 0 1 0 2 0 -3 -1 0 0 2 0 1 -1 1 0 0 1 19 2 -5 0 0 1 -160 -212 -354 -176 -221 -319 -149 -129 -144 -69 -25 -109 -86 -77 -149 -130 0 -170 -270 -499 -198 -192 -254 -161 -114 -76 -39 -12 -135 -89 -64 -165 -111 -191 -186 -135 -134 
264 267 260 257 265 271 274 279 263 234 -161 -387 -134 -62 40 103 -1 0 1 -1 0 -1 -1 0 0 40 126 86 -23 -83 106 -4 -5 -8 -4 -6 -8 -4 -5 -6 -5 -7 -6 -6 -6 -7 -6 -7 -8 -5 -8 -2 -6 -7 -6 -8 17 4 -8 -7 -8 4 0 1 4 2 2 6 7 5 4 5 3 7 7 7 5 5 4 -1 3 4 5 3 3 -22 -4 6 6 5 4 0 0 -3 0 0 4 2 1 2 2 2 0 -1 1 0 1 0 0 -3 -1 0 0 2 0 1 -1 0 1 0 2 19 2 -5 0 0 2 -170 -224 -368 -185 -233 -332 -158 -138 -150 -74 -29 -117 -93 -81 -158 -136 0 -180 -284 -506 -207 -201 -266 -171 -121 -81 -43 -15 -143 -96 -69 -176 -116 -203 -197 -142 -141 
263 265 259 255 264 269 272 278 262 233 -161 -390 -135 -62 40 104 1 0 -1 0 1 -1 0 -1 -1 41 127 86 -23 -84 107 -6 -6 -5 -7 -5 -6 -7 -5 -6 -6 -6 -8 -5 -7 -6 -5 -8 -8 -5 -6 -1 -8 -4 -8 -7 19 2 -9 -6 -10 3 2 1 2 3 2 5 5 5 4 4 4 8 8 8 5 7 6 -3 2 2 5 2 1 -22 -2 9 4 6 3 0 1 -2 0 1 4 1 0 1 2 2 1 0 1 1 1 1 0 -2 -1 0 1 0 0 0 -1 1 1 0 2 17 2 -6 0 -1 2 -181 -236 -382 -195 -246 -345 -167 -146 -158 -80 -32 -125 -99 -85 -168 -143 0 -192 -298 -515 -216 -212 -280 -182 -129 -88 -48 -18 -153 -105 -75 -187 -123 -217 -208 -151 -148 
261 262 255 253 260 266 269 275 260 231 -161 -392 -135 -63 40 105 0 1 -1 0 0 -2 -1 0 0 42 128 87 -23 -85 107 -6 -5 -10 -4 -6 -9 -7 -4 -6 -7 -8 -6 -4 -8 -6 -7 -7 -6 -6 -7 -4 -5 -6 -6 -8 15 4 -7 -7 -8 3 1 -1 4 2 1 4 5 5 6 4 6 7 8 7 5 7 5 -1 1 3 3 3 3 -21 -1 7 6 6 5 0 1 -2 0 2 3 0 1 1 2 1 1 0 1 1 1 1 1 -2 -1 0 1 0 0 0 -2 2 0 1 2 17 1 -6 0 -1 2 -192 -248 -396 -204 -259 -359 -176 -155 -166 -87 -35 -133 -105 -89 -178 -149 0 -205 -312 -523 -226 -223 -293 -193 -137 -95 -52 -22 -162 -113 -81 -198 -130 -229 -218 -159 -156 
257 258 251 248 255 261 265 271 255 227 -162 -392 -136 -64 40 105 1 0 0 -1 0 0 -1 -1 -1 42 129 87 -22 -85 108 -6 -6 -9 -6 -6 -8 -6 -6 -6 -6 -5 -7 -5 -9 -5 -5 -7 -7 -8 -8 2 -7 -6 -6 -8 18 2 -7 -8 -7 1 0 0 2 2 2 6 8 7 8 5 6 7 7 7 5 7 4 -4 3 3 4 5 5 -18 -2 7 6 4 5 0 0 -5 0 3 2 0 2 2 2 1 2 0 0 1 0 1 0 -3 0 0 0 0 0 0 -1 1 1 0 2 15 1 -6 0 -1 1 -203 -261 -410 -213 -271 -372 -185 -165 -175 -92 -38 -142 -111 -93 -188 -154 0 -216 -327 -532 -236 -234 -306 -204 -146 -102 -57 -25 -171 -121 -86 -209 -136 -242 -230 -166 -165 
252 253 245 242 249 255 259 265 250 222 -163 -394 -137 -65 39 105 0 1 0 0 0 0 -1 -1 -1 42 129 87 -22 -85 108 -7 -6 -7 -8 -6 -9 -6 -5 -7 -7 -7 -6 -6 -6 -6 -6 -8 -6 -8 -8 -2 -6 -6 -5 -9 15 3 -8 -6 -9 2 0 1 3 4 2 5 6 6 4 5 5 7 9 7 8 7 5 -3 1 3 2 5 4 -18 -1 8 6 5 5 0 -1 -4 1 4 2 0 3 2 3 1 2 0 0 0 1 1 0 -3 0 0 0 0 1 3 -1 0 2 0 1 13 0 -5 0 -1 2 -216 -276 -424 -223 -286 -387 -197 -177 -184 -99 -43 -153 -119 -98 -199 -161 0 -229 -344 -543 -248 -247 -321 -217 -155 -111 -64 -30 -182 -130 -93 -222 -144 -256 -244 -176 -174 
248 249 241 237 244 250 254 260 245 217 -164 -396 -139 -66 39 106 1 1 0 1 -1 0 -1 -1 -1 42 129 86 -22 -85 107 -7 -8 -8 -7 -5 -9 -7 -5 -8 -5 -7 -7 -5 -8 -7 -6 -7 -6 -9 -7 -1 -5 -4 -7 -8 17 3 -8 -8 -9 2 1 1 4 3 3 4 6 7 6 6 5 6 8 7 7 6 6 -4 0 2 4 6 4 -16 2 9 5 4 4 0 0 -4 2 4 2 0 2 3 1 2 1 0 0 0 1 1 0 -2 -1 0 -1 0 0 3 -1 1 2 0 1 12 0 -5 0 -1 4 -229 -291 -440 -235 -302 -403 -209 -190 -193 -108 -50 -164 -128 -104 -212 -169 0 -243 -361 -554 -259 -260 -337 -231 -166 -120 -71 -35 -194 -140 -100 -236 -155 -272 -258 -186 -184 
245 245 237 233 239 245 249 256 241 214 -165 -400 -140 -68 38 105 0 0 0 1 0 -1 -1 0 -2 42 128 86 -22 -85 107 -7 -7 -8 -6 -7 -9 -5 -7 -7 -7 -7 -7 -4 -7 -9 -6 -5 -7 -7 -9 1 -4 -6 -8 -8 14 4 -7 -8 -7 2 0 1 3 1 1 5 7 5 7 7 5 5 7 9 6 6 7 -5 2 3 5 4 5 -14 -1 7 6 5 7 0 0 -3 2 5 2 0 3 2 1 2 0 0 0 2 0 0 1 -3 -1 0 -1 1 0 4 1 0 1 0 0 11 0 -5 0 -3 5 -242 -305 -454 -245 -316 -417 -218 -201 -202 -115 -55 -174 -136 -109 -224 -176 0 -257 -377 -563 -270 -272 -349 -244 -176 -129 -76 -40 -206 -149 -106 -249 -163 -286 -271 -195 -192 
241 242 233 229 234 240 245 252 237 211 -166 -402 -141 -69 38 105 0 2 -1 1 1 -2 -1 -2 -1 42 128 86 -22 -85 107 -8 -7 -9 -3 -9 -9 -7 -4 -8 -8 -6 -6 -6 -9 -6 -4 -5 -7 -8 -7 0 -4 -5 -6 -10 15 2 -7 -7 -8 2 0 0 5 0 2 4 7 8 6 5 6 4 6 7 5 6 5 -2 1 2 4 7 4 -14 1 8 6 5 7 0 0 -3 2 3 1 0 3 2 1 3 1 -2 1 1 0 0 2 -1 -1 -2 0 0 0 3 1 0 0 1 0 8 0 -5 0 -2 4 -253 -319 -467 -255 -329 -430 -228 -210 -211 -122 -59 -183 -143 -115 -236 -182 0 -269 -390 -573 -280 -283 -362 -257 -185 -137 -81 -45 -216 -158 -111 -261 -170 -300 -284 -204 -200 
