Eleclectrode_Positions_2.0
Electrode#	Time	X	Y	Z
1	7	42.8831	-34.8515	83.1462	
1	23	42.8464	-34.9602	83.0782	
1	40	42.8074	-34.9549	83.136	
1	57	42.8226	-34.8596	83.1981	
1	73	42.8019	-34.8803	83.1867	
1	90	42.7688	-34.8359	83.2727	
1	107	42.7365	-34.8349	83.3002	
1	123	42.7283	-34.755	83.357	
1	140	42.7243	-34.7137	83.3358	
1	157	42.6703	-34.8366	83.3741	
1	173	42.6311	-34.7152	83.5022	
1	190	42.5898	-34.7662	83.5285	
1	207	42.5862	-34.7513	83.4878	
1	223	42.5492	-34.7469	83.5951	
1	240	42.5272	-34.7081	83.594	
1	257	42.4867	-34.71	83.6368	
1	273	42.4272	-34.7385	83.6605	
1	290	42.4312	-34.7216	83.697	
1	307	42.4238	-34.6638	83.7167	
1	323	42.3878	-34.5694	83.778	
1	340	42.3128	-34.6724	83.7967	
1	357	42.2562	-34.6484	83.8031	
1	373	42.2516	-34.5798	83.8548	
1	390	42.2151	-34.588	83.8567	
1	407	42.1792	-34.5263	83.9142	
1	423	42.1539	-34.5387	83.9254	
1	440	42.1025	-34.5457	83.9445	
1	457	42.0722	-34.4756	83.9756	
1	473	42.0333	-34.4829	83.9886	
1	490	41.9969	-34.4758	83.9977	
1	507	41.9982	-34.4461	83.9965	
1	523	41.937	-34.4436	83.9912	
1	540	41.9293	-34.4097	83.9961	
1	557	41.8485	-34.5345	84.0361	
1	573	41.8515	-34.4114	83.9856	
1	590	41.8335	-34.4296	84.0916	
1	607	41.8223	-34.461	84.0217	
1	623	41.7187	-34.4921	84.0512	
1	640	41.7588	-34.4726	84.0322	
1	657	41.6762	-34.5601	83.9784	
1	673	41.6846	-34.4354	84.0586	
1	690	41.7241	-34.432	84.017	
1	707	41.6373	-34.4464	84.0073	
1	723	41.6375	-34.5025	83.9656	
1	740	41.6632	-34.4223	83.9377	
1	757	41.5712	-34.4851	83.9783	
1	773	41.5487	-34.4715	83.9374	
1	790	41.598	-34.3692	83.9115	
1	807	41.5291	-34.4191	83.8283	
1	823	41.5837	-34.3433	83.792	
1	840	41.4953	-34.3038	83.8188	
1	857	41.5309	-34.3022	83.7121	
1	873	41.5218	-34.2135	83.7348	
1	890	41.4875	-34.2239	83.6302	
1	907	41.4665	-34.1229	83.6523	
1	923	41.5245	-33.9249	83.5806	
1	940	41.48	-33.8831	83.5543	
1	957	41.4925	-33.7241	83.4876	
1	973	41.4337	-33.6847	83.5357	
1	990	41.4464	-33.5688	83.4035	
1	1007	41.4564	-33.4178	83.3804	
1	1023	41.4696	-33.1821	83.3383	
1	1040	41.4994	-32.9974	83.274	
1	1057	42.8849	-30.2907	81.3681	
1	1073	42.7705	-30.0892	81.3657	
1	1090	42.7632	-29.8037	81.4436	
1	1107	42.7227	-29.6048	81.3418	
1	1123	42.7307	-29.448	81.3136	
1	1140	42.6621	-29.1284	81.3835	
1	1157	42.6513	-28.9328	81.3623	
1	1173	42.6079	-28.7277	81.3419	
1	1190	42.596	-28.4664	81.3503	
1	1207	42.5395	-28.2209	81.3766	
1	1223	42.5257	-27.9464	81.3719	
1	1240	42.4834	-27.6779	81.3752	
1	1257	42.4864	-27.3912	81.4067	
1	1273	42.4149	-27.1773	81.3955	
1	1290	42.3335	-27.6271	79.5579	
1	1307	42.3577	-27.2926	79.6421	
1	1323	42.2964	-27.0919	79.6191	
1	1340	42.3054	-26.7597	79.7408	
1	1357	42.2435	-26.4926	79.8361	
1	1373	42.2191	-26.233	79.8916	
1	1390	42.1302	-25.9926	79.9072	
1	1407	42.1435	-25.717	79.9753	
1	1423	41.9872	-25.6439	80.0207	
1	1440	42.0009	-25.3797	80.0648	
1	1457	41.9122	-25.1655	80.1363	
1	1473	41.8701	-24.9822	80.1804	
1	1490	42.0105	-24.7765	80.0238	
1	1507	41.9342	-24.6656	80.0804	
1	1523	41.8673	-24.5532	80.12	
1	1540	41.1915	-25.271	77.3963	
1	1557	40.8703	-25.4561	76.4117	
1	1573	40.8686	-25.3695	76.4184	
1	1590	40.7548	-25.3363	76.4009	
1	1607	40.6193	-25.2841	75.7976	
1	1623	40.5218	-25.3003	75.7535	
1	1640	40.4828	-25.2558	75.799	
1	1657	40.5043	-25.2255	75.7458	
1	1673	40.456	-25.2126	75.7385	
1	1690	40.4074	-25.3262	75.6528	
1	1707	40.3946	-25.3288	75.6432	
1	1723	40.3328	-25.3897	75.6161	
1	1740	40.2927	-25.4835	75.6443	
1	1757	40.3271	-25.5057	75.5553	
1	1773	40.2721	-25.7075	75.4572	
1	1790	40.2619	-25.767	75.4598	
1	1807	40.2248	-25.9436	75.4308	
1	1823	40.2991	-26.0522	75.3451	
1	1840	40.1685	-26.2883	74.7718	
1	1857	40.3491	-26.0915	74.5009	
1	1873	40.3177	-26.3032	74.4754	
1	1890	40.3389	-26.4812	74.3918	
1	1907	40.3527	-26.6264	74.3409	
1	1923	40.3932	-26.3684	74.6641	
1	1940	40.3644	-25.9483	75.0757	
1	1957	40.3409	-26.174	74.9556	
1	1973	40.3667	-26.2702	75.0357	
1	1990	40.3192	-26.4941	74.9584	
1	2007	40.3717	-26.6161	74.9397	
1	2023	40.2952	-26.8744	74.9285	
1	2040	40.312	-27.1364	74.8023	
1	2057	40.3664	-27.2273	74.7982	
1	2073	40.3546	-27.4544	74.7336	
1	2090	40.3839	-27.6828	74.6501	
1	2107	40.4034	-27.8329	74.6445	
1	2123	40.3765	-28.0896	74.5721	
1	2140	40.4343	-28.2886	74.4601	
1	2157	40.4528	-28.4673	74.4275	
1	2173	40.4859	-28.6562	74.3965	
1	2190	40.502	-28.8111	74.3508	
1	2207	40.5216	-28.9936	74.2546	
1	2223	40.5458	-29.1377	74.2314	
1	2240	40.5572	-29.3861	74.1785	
1	2257	40.5786	-29.498	74.1127	
1	2273	40.6282	-29.6831	73.9963	
1	2290	40.5984	-29.8853	73.9767	
2	7	42.2624	-38.157	84.113	
2	23	42.2228	-38.2654	84.044	
2	40	42.1838	-38.2603	84.1012	
2	57	42.1995	-38.1653	84.1626	
2	73	42.1796	-38.1863	84.1507	
2	90	42.1486	-38.1431	84.2341	
2	107	42.1178	-38.1423	84.2621	
2	123	42.1109	-38.0626	84.319	
2	140	42.1065	-38.0215	84.2968	
2	157	42.0536	-38.1445	84.3356	
2	173	42.0181	-38.0249	84.4597	
2	190	41.9784	-38.0762	84.4859	
2	207	41.9715	-38.0604	84.4462	
2	223	41.9384	-38.0569	84.5528	
2	240	41.9157	-38.0181	84.5514	
2	257	41.8768	-38.0204	84.5939	
2	273	41.8193	-38.0491	84.618	
2	290	41.8219	-38.032	84.6546	
2	307	41.8129	-37.9733	84.6761	
2	323	41.7802	-37.8799	84.7362	
2	340	41.7062	-37.9835	84.7535	
2	357	41.6502	-37.9598	84.7593	
2	373	41.6464	-37.8913	84.8111	
2	390	41.6083	-37.8991	84.8136	
2	407	41.5737	-37.8374	84.8717	
2	423	41.5494	-37.8499	84.8835	
2	440	41.4981	-37.8567	84.9033	
2	457	41.4686	-37.787	84.9332	
2	473	41.4311	-37.7943	84.9473	
2	490	41.3936	-37.787	84.9565	
2	507	41.3932	-37.7567	84.9564	
2	523	41.3325	-37.754	84.9518	
2	540	41.3225	-37.7196	84.9572	
2	557	41.2439	-37.8444	84.9983	
2	573	41.2448	-37.721	84.9476	
2	590	41.2285	-37.7393	85.0545	
2	607	41.2144	-37.77	84.9852	
2	623	41.1137	-37.8017	85.0145	
2	640	41.151	-37.7809	84.9983	
2	657	41.0666	-37.868	84.9446	
2	673	41.0768	-37.7433	85.0259	
2	690	41.1122	-37.7388	84.9856	
2	707	41.0278	-37.7539	84.9751	
2	723	41.0243	-37.8086	84.9355	
2	740	41.048	-37.7273	84.9106	
2	757	40.9593	-37.7908	84.9507	
2	773	40.9355	-37.7768	84.9102	
2	790	40.9827	-37.6736	84.8863	
2	807	40.9131	-37.723	84.8041	
2	823	40.9646	-37.6458	84.7708	
2	840	40.8793	-37.607	84.7972	
2	857	40.9112	-37.6042	84.6921	
2	873	40.9037	-37.5155	84.7157	
2	890	40.8664	-37.5246	84.6137	
2	907	40.8476	-37.4238	84.6366	
2	923	40.9037	-37.225	84.5663	
2	940	40.8602	-37.1829	84.5414	
2	957	40.8719	-37.0234	84.4761	
2	973	40.8164	-36.9842	84.5254	
2	990	40.827	-36.8676	84.3943	
2	1007	40.8371	-36.7159	84.3737	
2	1023	40.8512	-36.4802	84.332	
2	1040	40.8802	-36.2945	84.2708	
2	1057	42.4018	-33.6451	82.2412	
2	1073	42.3086	-33.4515	82.2193	
2	1090	42.3083	-33.1683	82.2918	
2	1107	42.27	-32.9702	82.188	
2	1123	42.2771	-32.8123	82.1638	
2	1140	42.2161	-32.4948	82.2291	
2	1157	42.2062	-32.2993	82.2082	
2	1173	42.1632	-32.0942	82.188	
2	1190	42.153	-31.833	82.1966	
2	1207	42.1012	-31.5888	82.2206	
2	1223	42.0897	-31.3143	82.2167	
2	1240	42.0518	-31.0469	82.2178	
2	1257	42.0575	-30.7607	82.2492	
2	1273	41.9899	-30.5477	82.2363	
2	1290	41.9654	-31.0472	80.2019	
2	1307	41.9865	-30.7156	80.2683	
2	1323	41.9237	-30.5161	80.2372	
2	1340	41.9361	-30.1849	80.356	
2	1357	41.8769	-29.9178	80.4526	
2	1373	41.8567	-29.6588	80.5077	
2	1390	41.7736	-29.4197	80.5194	
2	1407	41.7856	-29.1427	80.5941	
2	1423	41.6343	-29.0709	80.6351	
2	1440	41.6513	-28.807	80.6795	
2	1457	41.567	-28.5936	80.7491	
2	1473	41.5269	-28.4103	80.7942	
2	1490	41.6491	-28.1999	80.6534	
2	1507	41.5771	-28.09	80.7069	
2	1523	41.5163	-27.9784	80.7458	
2	1540	40.8821	-28.7111	77.9582	
2	1557	40.5885	-28.8978	76.9782	
2	1573	40.588	-28.8114	76.9839	
2	1590	40.4803	-28.7787	76.9658	
2	1607	40.3596	-28.7242	76.3834	
2	1623	40.263	-28.7404	76.34	
2	1640	40.2248	-28.6959	76.3856	
2	1657	40.2443	-28.6654	76.3331	
2	1673	40.1962	-28.6524	76.3264	
2	1690	40.1464	-28.7656	76.2428	
2	1707	40.1342	-28.7679	76.2345	
2	1723	40.0728	-28.829	76.2065	
2	1740	40.0338	-28.9227	76.2361	
2	1757	40.0674	-28.9447	76.1479	
2	1773	40.01	-29.1455	76.0546	
2	1790	40.0012	-29.2044	76.0611	
2	1807	39.961	-29.3804	76.0336	
2	1823	40.0295	-29.4877	75.9529	
2	1840	39.9072	-29.7242	75.3811	
2	1857	40.0832	-29.5413	75.0241	
2	1873	40.0493	-29.7539	74.9908	
2	1890	40.067	-29.9311	74.9112	
2	1907	40.0789	-30.0756	74.8638	
2	1923	40.1134	-29.8129	75.2147	
2	1940	40.068	-29.3758	75.7169	
2	1957	40.035	-29.5962	75.6199	
2	1973	40.0564	-29.6899	75.7103	
2	1990	40.0061	-29.913	75.6363	
2	2007	40.0508	-30.0329	75.6243	
2	2023	39.973	-30.2896	75.6207	
2	2040	39.9845	-30.5493	75.503	
2	2057	40.034	-30.638	75.5073	
2	2073	40.0181	-30.8631	75.4504	
2	2090	40.0406	-31.0886	75.3776	
2	2107	40.0543	-31.2358	75.3825	
2	2123	40.0249	-31.4907	75.3171	
2	2140	40.0734	-31.6863	75.2165	
2	2157	40.0878	-31.8621	75.1944	
2	2173	40.1153	-32.0482	75.1732	
2	2190	40.127	-32.2003	75.1373	
2	2207	40.1424	-32.3804	75.0494	
2	2223	40.1641	-32.5219	75.0361	
2	2240	40.1715	-32.767	74.9953	
2	2257	40.1909	-32.8763	74.9388	
2	2273	40.2367	-33.0585	74.8328	
2	2290	40.2026	-33.2586	74.8194	
3	7	41.186	-43.7962	85.852	
3	23	41.1421	-43.9045	85.7807	
3	40	41.1042	-43.8999	85.8368	
3	57	41.1214	-43.8055	85.8973	
3	73	41.103	-43.8271	85.8844	
3	90	41.076	-43.7861	85.9631	
3	107	41.0473	-43.7855	85.9917	
3	123	41.0422	-43.7062	86.0485	
3	140	41.0368	-43.6655	86.0243	
3	157	40.9857	-43.7886	86.0639	
3	173	40.9568	-43.6725	86.1805	
3	190	40.9197	-43.7244	86.2065	
3	207	40.9071	-43.7071	86.1684	
3	223	40.8811	-43.7054	86.2735	
3	240	40.8577	-43.6667	86.2711	
3	257	40.8215	-43.6696	86.3133	
3	273	40.7673	-43.6988	86.3381	
3	290	40.7678	-43.6815	86.374	
3	307	40.7559	-43.6215	86.3981	
3	323	40.7291	-43.5299	86.4559	
3	340	40.6572	-43.6348	86.4702	
3	357	40.6025	-43.6118	86.4748	
3	373	40.6	-43.5435	86.5264	
3	390	40.5594	-43.5507	86.5293	
3	407	40.5274	-43.4893	86.5885	
3	423	40.5049	-43.502	86.6006	
3	440	40.4538	-43.5084	86.6217	
3	457	40.4258	-43.4399	86.6488	
3	473	40.3908	-43.4471	86.6647	
3	490	40.3515	-43.4396	86.6735	
3	507	40.3487	-43.4083	86.6752	
3	523	40.2889	-43.4056	86.6713	
3	540	40.2751	-43.3705	86.6769	
3	557	40.2004	-43.4954	86.7201	
3	573	40.1978	-43.3715	86.6688	
3	590	40.1845	-43.39	86.7769	
3	607	40.1657	-43.4197	86.708	
3	623	40.0701	-43.4526	86.7365	
3	640	40.1025	-43.4294	86.7251	
3	657	40.0153	-43.516	86.6715	
3	673	40.0285	-43.3914	86.7546	
3	690	40.0572	-43.385	86.7161	
3	707	39.977	-43.4014	86.7041	
3	723	39.9671	-43.4538	86.6681	
3	740	39.9874	-43.3703	86.6479	
3	757	39.9043	-43.4353	86.6871	
3	773	39.8784	-43.4207	86.6472	
3	790	39.9221	-43.3159	86.6263	
3	807	39.8513	-43.3645	86.5457	
3	823	39.8977	-43.2848	86.5175	
3	840	39.8175	-43.2472	86.5432	
3	857	39.8429	-43.2425	86.4405	
3	873	39.8382	-43.1538	86.4657	
3	890	39.7956	-43.1605	86.3681	
3	907	39.7805	-43.0599	86.3924	
3	923	39.8331	-42.8598	86.3243	
3	940	39.7912	-42.8173	86.3018	
3	957	39.8015	-42.6568	86.2388	
3	973	39.7515	-42.618	86.2903	
3	990	39.7584	-42.5003	86.1606	
3	1007	39.7685	-42.3473	86.144	
3	1023	39.7839	-42.1116	86.1032	
3	1040	39.8113	-41.9238	86.0473	
3	1057	41.5661	-39.3753	83.8076	
3	1073	41.507	-39.1943	83.7567	
3	1090	41.5162	-38.9141	83.8224	
3	1107	41.4801	-38.7171	83.7156	
3	1123	41.4849	-38.5573	83.6977	
3	1140	41.4368	-38.2438	83.7547	
3	1157	41.4291	-38.0486	83.7335	
3	1173	41.3875	-37.8438	83.7131	
3	1190	41.3806	-37.5829	83.7224	
3	1207	41.3367	-37.3408	83.7423	
3	1223	41.3284	-37.0665	83.7397	
3	1240	41.2972	-36.801	83.7368	
3	1257	41.3067	-36.5154	83.7674	
3	1273	41.2452	-36.304	83.7515	
3	1290	41.3159	-36.8932	81.3801	
3	1307	41.3329	-36.5663	81.4199	
3	1323	41.2685	-36.3686	81.3784	
3	1340	41.2867	-36.0388	81.4931	
3	1357	41.2315	-35.772	81.5909	
3	1373	41.2178	-35.5141	81.6439	
3	1390	41.1437	-35.2775	81.6478	
3	1407	41.1525	-34.9981	81.7333	
3	1423	41.0091	-34.9286	81.7668	
3	1440	41.0311	-34.6652	81.8117	
3	1457	40.9542	-34.4534	81.877	
3	1473	40.9176	-34.2702	81.9234	
3	1490	41.0075	-34.0507	81.811	
3	1507	40.9407	-33.9419	81.8614	
3	1523	40.889	-33.8313	81.8999	
3	1540	40.332	-34.5905	79.0116	
3	1557	40.089	-34.7786	78.0473	
3	1573	40.0898	-34.6928	78.0507	
3	1590	39.9904	-34.6613	78.0302	
3	1607	39.8965	-34.6018	77.4858	
3	1623	39.8021	-34.618	77.4433	
3	1640	39.7664	-34.5737	77.4892	
3	1657	39.7839	-34.5428	77.4377	
3	1673	39.7376	-34.5297	77.4324	
3	1690	39.6867	-34.6421	77.3525	
3	1707	39.6762	-34.6441	77.3469	
3	1723	39.6155	-34.7055	77.3174	
3	1740	39.5786	-34.7989	77.3494	
3	1757	39.6109	-34.8206	77.2624	
3	1773	39.5494	-35.0194	77.1777	
3	1790	39.5431	-35.0771	77.1915	
3	1807	39.498	-35.2523	77.1665	
3	1823	39.5568	-35.357	77.0949	
3	1840	39.451	-35.5935	76.5288	
3	1857	39.6187	-35.438	76.0192	
3	1873	39.5799	-35.6526	75.972	
3	1890	39.5909	-35.828	75.8996	
3	1907	39.5988	-35.9712	75.8581	
3	1923	39.62	-35.7003	76.2512	
3	1940	39.5464	-35.2327	76.9024	
3	1957	39.4993	-35.4438	76.8449	
3	1973	39.515	-35.5333	76.9531	
3	1990	39.4606	-35.7548	76.8844	
3	2007	39.4913	-35.871	76.8838	
3	2023	39.4109	-36.1245	76.8933	
3	2040	39.4121	-36.3801	76.7901	
3	2057	39.4529	-36.4647	76.809	
3	2073	39.43	-36.6861	76.7654	
3	2090	39.441	-36.9062	76.711	
3	2107	39.4453	-37.0481	76.7345	
3	2123	39.4119	-37.2999	76.6806	
3	2140	39.4446	-37.4893	76.5991	
3	2157	39.4522	-37.6599	76.5957	
3	2173	39.47	-37.8407	76.5916	
3	2190	39.4745	-37.9877	76.5732	
3	2207	39.4825	-38.1634	76.4995	
3	2223	39.4999	-38.3001	76.5031	
3	2240	39.5005	-38.539	76.4832	
3	2257	39.5165	-38.6437	76.4434	
3	2273	39.5558	-38.8203	76.3553	
3	2290	39.5151	-39.0168	76.3526	
4	7	40.6419	-46.6028	86.7601	
4	23	40.5963	-46.7112	86.6875	
4	40	40.5594	-46.707	86.7431	
4	57	40.5777	-46.6129	86.8032	
4	73	40.5601	-46.6348	86.7898	
4	90	40.5352	-46.5951	86.8659	
4	107	40.5073	-46.5945	86.8948	
4	123	40.503	-46.5154	86.9514	
4	140	40.4969	-46.475	86.926	
4	157	40.4467	-46.5982	86.9658	
4	173	40.4212	-46.484	87.0786	
4	190	40.3854	-46.5362	87.1045	
4	207	40.37	-46.5181	87.0669	
4	223	40.3477	-46.5174	87.1712	
4	240	40.324	-46.4789	87.1681	
4	257	40.2892	-46.4821	87.2101	
4	273	40.2366	-46.5115	87.2353	
4	290	40.2362	-46.4942	87.2705	
4	307	40.2228	-46.4336	87.2958	
4	323	40.199	-46.343	87.3523	
4	340	40.1284	-46.4487	87.3647	
4	357	40.0744	-46.426	87.3686	
4	373	40.0726	-46.358	87.42	
4	390	40.0309	-46.365	87.4229	
4	407	40.0003	-46.3037	87.4825	
4	423	39.9787	-46.3166	87.4946	
4	440	39.9279	-46.3229	87.5162	
4	457	39.9006	-46.2551	87.5418	
4	473	39.8668	-46.2622	87.5585	
4	490	39.8268	-46.2548	87.5667	
4	507	39.8228	-46.223	87.5692	
4	523	39.7636	-46.2204	87.5654	
4	540	39.748	-46.1849	87.5709	
4	557	39.6753	-46.3098	87.6152	
4	573	39.6711	-46.1858	87.5635	
4	590	39.6594	-46.2045	87.672	
4	607	39.6383	-46.2337	87.6031	
4	623	39.5453	-46.2673	87.631	
4	640	39.5752	-46.2429	87.6221	
4	657	39.4867	-46.3293	87.5683	
4	673	39.5015	-46.2046	87.6523	
4	690	39.5268	-46.1975	87.6146	
4	707	39.4487	-46.2145	87.6016	
4	723	39.4356	-46.2658	87.5674	
4	740	39.4543	-46.1812	87.5496	
4	757	39.374	-46.2469	87.5882	
4	773	39.3471	-46.232	87.5485	
4	790	39.3892	-46.1265	87.529	
4	807	39.3177	-46.1748	87.4492	
4	823	39.3615	-46.0938	87.4234	
4	840	39.2838	-46.0567	87.4488	
4	857	39.3061	-46.0511	87.3471	
4	873	39.3026	-45.9623	87.3732	
4	890	39.2572	-45.9679	87.2777	
4	907	39.244	-45.8674	87.3028	
4	923	39.2948	-45.6666	87.2357	
4	940	39.2536	-45.6239	87.2143	
4	957	39.2632	-45.4628	87.1524	
4	973	39.2158	-45.4241	87.2052	
4	990	39.2209	-45.3059	87.0758	
4	1007	39.2309	-45.1523	87.0612	
4	1023	39.2469	-44.9166	87.0208	
4	1040	39.2734	-44.7278	86.9676	
4	1057	41.1446	-42.2309	84.6237	
4	1073	41.1016	-42.0558	84.5604	
4	1090	41.1145	-41.7767	84.624	
4	1107	41.0785	-41.58	84.5159	
4	1123	41.0819	-41.4192	84.5008	
4	1140	41.0403	-41.1078	84.5534	
4	1157	41.0339	-40.913	84.5318	
4	1173	40.9932	-40.7085	84.511	
4	1190	40.9882	-40.4477	84.5206	
4	1207	40.9482	-40.2066	84.5386	
4	1223	40.9413	-39.9323	84.5366	
4	1240	40.913	-39.6678	84.5315	
4	1257	40.924	-39.3826	84.5617	
4	1273	40.8653	-39.1721	84.5441	
4	1290	40.9824	-39.8082	82.0044	
4	1307	40.998	-39.4835	82.0328	
4	1323	40.9331	-39.2865	81.9877	
4	1340	40.9542	-38.9574	82.1006	
4	1357	40.9008	-38.6907	82.1986	
4	1373	40.89	-38.4336	82.2498	
4	1390	40.8199	-38.1984	82.2494	
4	1407	40.8267	-37.9177	82.34	
4	1423	40.6868	-37.8493	82.3699	
4	1440	40.7111	-37.5861	82.4149	
4	1457	40.6378	-37.3752	82.4776	
4	1473	40.6029	-37.1922	82.5245	
4	1490	40.6761	-36.9677	82.4269	
4	1507	40.611	-36.8591	82.4768	
4	1523	40.5632	-36.749	82.5155	
4	1540	40.0476	-37.5218	79.581	
4	1557	39.8316	-37.71	78.6283	
4	1573	39.8325	-37.6245	78.6302	
4	1590	39.7364	-37.5937	78.6078	
4	1607	39.6564	-37.5313	78.0836	
4	1623	39.5636	-37.5476	78.0414	
4	1640	39.5296	-37.5033	78.0875	
4	1657	39.5467	-37.4724	78.0363	
4	1673	39.5021	-37.4592	78.032	
4	1690	39.451	-37.5712	77.9539	
4	1707	39.4418	-37.573	77.95	
4	1723	39.3815	-37.6345	77.9198	
4	1740	39.3457	-37.7278	77.9528	
4	1757	39.3773	-37.7493	77.8665	
4	1773	39.3138	-37.947	77.7862	
4	1790	39.3088	-38.004	77.8038	
4	1807	39.2614	-38.1787	77.7802	
4	1823	39.3154	-38.2821	77.7133	
4	1840	39.2191	-38.5185	77.1514	
4	1857	39.3824	-38.3782	76.5633	
4	1873	39.3409	-38.5939	76.5088	
4	1890	39.3481	-38.7683	76.4402	
4	1907	39.3536	-38.9108	76.4018	
4	1923	39.3667	-38.6358	76.8134	
4	1940	39.2792	-38.1524	77.5361	
4	1957	39.2261	-38.3587	77.4981	
4	1973	39.2399	-38.4459	77.6154	
4	1990	39.1837	-38.6666	77.5493	
4	2007	39.2071	-38.7808	77.5544	
4	2023	39.1251	-39.0327	77.5703	
4	2040	39.1208	-39.286	77.4745	
4	2057	39.1571	-39.3684	77.5007	
4	2073	39.1306	-39.5878	77.4638	
4	2090	39.136	-39.8051	77.4186	
4	2107	39.1358	-39.9443	77.4515	
4	2123	39.1006	-40.1944	77.4034	
4	2140	39.1254	-40.3806	77.3313	
4	2157	39.1299	-40.5483	77.3374	
4	2173	39.1428	-40.7264	77.3421	
4	2190	39.1436	-40.8706	77.3328	
4	2207	39.1478	-41.044	77.2661	
4	2223	39.1631	-41.1782	77.2782	
4	2240	39.1603	-41.4138	77.2689	
4	2257	39.1747	-41.5159	77.2376	
4	2273	39.2108	-41.6897	77.1586	
4	2290	39.1671	-41.8843	77.1612	
5	7	39.4908	-52.1051	88.7971	
5	23	39.4425	-52.2139	88.7218	
5	40	39.4084	-52.2109	88.7761	
5	57	39.4292	-52.1178	88.8352	
5	73	39.4136	-52.1405	88.8208	
5	90	39.3927	-52.1032	88.8921	
5	107	39.3663	-52.1026	88.922	
5	123	39.3634	-52.0243	88.9775	
5	140	39.3562	-51.9844	88.9498	
5	157	39.3081	-52.1085	88.9891	
5	173	39.2891	-51.998	89.0948	
5	190	39.2557	-52.0511	89.1201	
5	207	39.2354	-52.0316	89.0837	
5	223	39.2204	-52.0331	89.1861	
5	240	39.1964	-51.9953	89.1811	
5	257	39.1642	-51.9991	89.2228	
5	273	39.1148	-52.0291	89.2483	
5	290	39.1129	-52.0123	89.2816	
5	307	39.0971	-51.9508	89.3083	
5	323	39.079	-51.8622	89.3625	
5	340	39.0109	-51.9701	89.3706	
5	357	38.9584	-51.9483	89.3728	
5	373	38.9581	-51.8811	89.4231	
5	390	38.9146	-51.8881	89.4253	
5	407	38.8867	-51.8271	89.4857	
5	423	38.8673	-51.841	89.4965	
5	440	38.8169	-51.8469	89.5194	
5	457	38.7914	-51.7809	89.5412	
5	473	38.7598	-51.7881	89.5591	
5	490	38.7187	-51.7811	89.5658	
5	507	38.7128	-51.7486	89.5695	
5	523	38.6548	-51.7466	89.5651	
5	540	38.6362	-51.7111	89.5695	
5	557	38.5671	-51.8359	89.6161	
5	573	38.5601	-51.7117	89.5634	
5	590	38.5515	-51.7311	89.6719	
5	607	38.5266	-51.7597	89.6029	
5	623	38.4383	-51.7948	89.6293	
5	640	38.4638	-51.768	89.6247	
5	657	38.3729	-51.8541	89.5703	
5	673	38.3904	-51.7294	89.6562	
5	690	38.41	-51.721	89.6191	
5	707	38.3358	-51.7394	89.6043	
5	723	38.3167	-51.7884	89.5733	
5	740	38.3327	-51.7022	89.5593	
5	757	38.2575	-51.7695	89.5962	
5	773	38.2289	-51.7542	89.5568	
5	790	38.268	-51.6475	89.5392	
5	807	38.195	-51.695	89.4609	
5	823	38.2344	-51.6118	89.4392	
5	840	38.1614	-51.5762	89.4635	
5	857	38.1779	-51.5689	89.3634	
5	873	38.1767	-51.4803	89.3907	
5	890	38.1264	-51.4836	89.2989	
5	907	38.1166	-51.3837	89.3248	
5	923	38.1641	-51.1818	89.2592	
5	940	38.1242	-51.1391	89.239	
5	957	38.1324	-50.9772	89.1787	
5	973	38.0902	-50.9391	89.2333	
5	990	38.092	-50.8207	89.1033	
5	1007	38.1019	-50.6662	89.0917	
5	1023	38.1191	-50.4309	89.0513	
5	1040	38.1442	-50.2404	89.0025	
5	1057	40.225	-47.8382	86.4785	
5	1073	40.2107	-47.6733	86.3956	
5	1090	40.2305	-47.397	86.4549	
5	1107	40.195	-47.2021	86.343	
5	1123	40.197	-47.0406	86.3312	
5	1140	40.168	-46.7343	86.3746	
5	1157	40.1656	-46.5413	86.3505	
5	1173	40.1281	-46.3384	86.3273	
5	1190	40.1281	-46.079	86.3365	
5	1207	40.0962	-45.8408	86.3499	
5	1223	40.093	-45.5677	86.3473	
5	1240	40.0705	-45.3062	86.3367	
5	1257	40.0852	-45.0227	86.3643	
5	1273	40.0325	-44.8148	86.342	
5	1290	40.2317	-45.5441	83.4971	
5	1307	40.2482	-45.2255	83.504	
5	1323	40.1849	-45.0313	83.4513	
5	1340	40.2128	-44.7051	83.5589	
5	1357	40.1644	-44.4406	83.6539	
5	1373	40.1599	-44.1861	83.6994	
5	1390	40.0983	-43.9551	83.6881	
5	1407	40.1028	-43.6734	83.7852	
5	1423	39.9704	-43.6086	83.8066	
5	1440	40.0001	-43.3473	83.8489	
5	1457	39.9346	-43.1397	83.9043	
5	1473	39.9041	-42.9579	83.95	
5	1490	39.9482	-42.7251	83.877	
5	1507	39.8865	-42.6182	83.9244	
5	1523	39.8461	-42.5096	83.9619	
5	1540	39.4104	-43.3031	80.9617	
5	1557	39.2494	-43.4884	80.0408	
5	1573	39.2524	-43.4039	80.0395	
5	1590	39.1622	-43.3752	80.0119	
5	1607	39.1102	-43.3056	79.5284	
5	1623	39.0226	-43.3224	79.4864	
5	1640	38.9934	-43.2787	79.5327	
5	1657	39.0113	-43.2479	79.4817	
5	1673	38.9712	-43.2347	79.4795	
5	1690	38.9214	-43.3464	79.4041	
5	1707	38.9159	-43.3475	79.4039	
5	1723	38.8572	-43.4095	79.3725	
5	1740	38.824	-43.5022	79.4084	
5	1757	38.8549	-43.5231	79.3238	
5	1773	38.7879	-43.718	79.2529	
5	1790	38.7862	-43.7732	79.2787	
5	1807	38.7352	-43.9467	79.2582	
5	1823	38.7808	-44.0465	79.2017	
5	1840	38.7029	-44.2802	78.6533	
5	1857	38.8567	-44.1701	77.9241	
5	1873	38.8098	-44.3876	77.8575	
5	1890	38.8098	-44.5586	77.7985	
5	1907	38.8104	-44.6985	77.7672	
5	1923	38.8097	-44.4256	78.1894	
5	1940	38.7033	-43.9296	78.9991	
5	1957	38.6413	-44.1294	78.9896	
5	1973	38.6528	-44.2129	79.122	
5	1990	38.5937	-44.4321	79.0609	
5	2007	38.6038	-44.5423	79.0764	
5	2023	38.5191	-44.7912	79.1036	
5	2040	38.504	-45.0395	79.0221	
5	2057	38.5316	-45.1171	79.0628	
5	2073	38.4985	-45.3324	79.0386	
5	2090	38.493	-45.5433	79.012	
5	2107	38.4843	-45.6761	79.0641	
5	2123	38.4456	-45.9226	79.0275	
5	2140	38.455	-46.1015	78.9742	
5	2157	38.4532	-46.2629	78.9999	
5	2173	38.4559	-46.434	79.0234	
5	2190	38.4493	-46.5716	79.0328	
5	2207	38.4458	-46.7395	78.9809	
5	2223	38.4563	-46.8677	79.0104	
5	2240	38.4461	-47.0959	79.0224	
5	2257	38.4566	-47.1916	79.0094	
5	2273	38.4859	-47.3584	78.9492	
5	2290	38.436	-47.5486	78.963	
6	7	38.8583	-54.7584	89.9977	
6	23	38.8092	-54.8676	89.9211	
6	40	38.7766	-54.8655	89.9744	
6	57	38.7989	-54.7732	90.0328	
6	73	38.7843	-54.7963	90.018	
6	90	38.7654	-54.7602	90.0874	
6	107	38.7394	-54.7593	90.1179	
6	123	38.7377	-54.682	90.1724	
6	140	38.7301	-54.6422	90.144	
6	157	38.6833	-54.7673	90.1822	
6	173	38.6672	-54.6585	90.2853	
6	190	38.635	-54.7123	90.3098	
6	207	38.6127	-54.6921	90.274	
6	223	38.601	-54.6949	90.3752	
6	240	38.5772	-54.6577	90.3692	
6	257	38.546	-54.6619	90.4107	
6	273	38.4981	-54.6923	90.4361	
6	290	38.4959	-54.676	90.4682	
6	307	38.4793	-54.6146	90.4949	
6	323	38.4636	-54.5269	90.5481	
6	340	38.3968	-54.6362	90.5539	
6	357	38.3451	-54.6151	90.555	
6	373	38.3455	-54.5485	90.6044	
6	390	38.3016	-54.5559	90.6058	
6	407	38.2748	-54.4951	90.6664	
6	423	38.2564	-54.5099	90.6761	
6	440	38.2062	-54.5156	90.6996	
6	457	38.1817	-54.4508	90.7193	
6	473	38.1511	-54.4583	90.7372	
6	490	38.1097	-54.4515	90.7432	
6	507	38.1031	-54.4188	90.7472	
6	523	38.0458	-54.4176	90.7417	
6	540	38.0261	-54.3825	90.7451	
6	557	37.9584	-54.5073	90.7926	
6	573	37.9504	-54.383	90.7395	
6	590	37.9434	-54.4031	90.8474	
6	607	37.9169	-54.4314	90.7784	
6	623	37.8306	-54.4673	90.8039	
6	640	37.8543	-54.4395	90.801	
6	657	37.7625	-54.5256	90.7463	
6	673	37.7811	-54.4008	90.8329	
6	690	37.7986	-54.3921	90.7957	
6	707	37.726	-54.4113	90.78	
6	723	37.7043	-54.4593	90.7502	
6	740	37.7194	-54.3727	90.737	
6	757	37.6462	-54.4409	90.773	
6	773	37.617	-54.4254	90.7337	
6	790	37.6551	-54.3185	90.7165	
6	807	37.5813	-54.3654	90.6389	
6	823	37.619	-54.2816	90.6183	
6	840	37.548	-54.2469	90.6417	
6	857	37.5623	-54.2391	90.542	
6	873	37.562	-54.1508	90.5693	
6	890	37.5097	-54.1533	90.4786	
6	907	37.5015	-54.054	90.5043	
6	923	37.5476	-53.8517	90.439	
6	940	37.5085	-53.8095	90.4185	
6	957	37.5161	-53.6476	90.3585	
6	973	37.4762	-53.6099	90.4132	
6	990	37.477	-53.4922	90.2819	
6	1007	37.4871	-53.3378	90.2707	
6	1023	37.5049	-53.1031	90.2296	
6	1040	37.5297	-52.9123	90.1818	
6	1057	39.6923	-50.5475	87.5952	
6	1073	39.6901	-50.3869	87.5055	
6	1090	39.7139	-50.1131	87.5616	
6	1107	39.6798	-49.9201	87.4466	
6	1123	39.6826	-49.7597	87.434	
6	1140	39.6598	-49.4566	87.4727	
6	1157	39.6601	-49.2653	87.4462	
6	1173	39.6254	-49.0645	87.4203	
6	1190	39.6289	-48.8066	87.428	
6	1207	39.6014	-48.5706	87.4385	
6	1223	39.6011	-48.2993	87.434	
6	1240	39.5823	-48.0404	87.4193	
6	1257	39.5998	-47.7588	87.4443	
6	1273	39.5507	-47.5532	87.4186	
6	1290	39.7815	-48.3261	84.4521	
6	1307	39.8016	-48.0124	84.4478	
6	1323	39.7412	-47.8212	84.3893	
6	1340	39.7737	-47.498	84.492	
6	1357	39.7292	-47.2363	84.5826	
6	1373	39.7288	-46.9844	84.6237	
6	1390	39.6723	-46.7567	84.6057	
6	1407	39.6778	-46.4763	84.7023	
6	1423	39.55	-46.4144	84.7179	
6	1440	39.5836	-46.1556	84.7564	
6	1457	39.5227	-45.951	84.8061	
6	1473	39.4952	-45.7708	84.8494	
6	1490	39.5297	-45.5358	84.783	
6	1507	39.4707	-45.4311	84.8265	
6	1523	39.4345	-45.3242	84.8618	
6	1540	39.0328	-46.1213	81.8511	
6	1557	38.8989	-46.3023	80.9508	
6	1573	38.9051	-46.2189	80.9481	
6	1590	38.8184	-46.1918	80.9173	
6	1607	38.7798	-46.1174	80.4533	
6	1623	38.6963	-46.135	80.4111	
6	1640	38.6703	-46.0917	80.4574	
6	1657	38.6896	-46.0614	80.406	
6	1673	38.6525	-46.0482	80.4048	
6	1690	38.6043	-46.1602	80.3299	
6	1707	38.6013	-46.1609	80.3319	
6	1723	38.5441	-46.2233	80.2998	
6	1740	38.5127	-46.3154	80.3378	
6	1757	38.5439	-46.3358	80.2546	
6	1773	38.4759	-46.5287	80.189	
6	1790	38.4762	-46.5827	80.219	
6	1807	38.4241	-46.7554	80.2005	
6	1823	38.4664	-46.8526	80.1499	
6	1840	38.3965	-47.0828	79.6117	
6	1857	38.5447	-46.9857	78.8302	
6	1873	38.4958	-47.2033	78.7603	
6	1890	38.4927	-47.3715	78.7079	
6	1907	38.4912	-47.5093	78.6815	
6	1923	38.4873	-47.2477	79.085	
6	1940	38.3803	-46.7649	79.885	
6	1957	38.3159	-46.9648	79.8793	
6	1973	38.327	-47.0473	80.0163	
6	1990	38.2668	-47.2657	79.9576	
6	2007	38.2717	-47.3741	79.9774	
6	2023	38.1861	-47.6218	80.0087	
6	2040	38.1666	-47.8675	79.934	
6	2057	38.1904	-47.9425	79.9815	
6	2073	38.1544	-48.1555	79.9633	
6	2090	38.1439	-48.3628	79.9458	
6	2107	38.1312	-48.4918	80.0077	
6	2123	38.0905	-48.7359	79.9771	
6	2140	38.0926	-48.9107	79.9334	
6	2157	38.0876	-49.0681	79.969	
6	2173	38.085	-49.2348	80.0029	
6	2190	38.0745	-49.3683	80.0222	
6	2207	38.0669	-49.5327	79.9783	
6	2223	38.0744	-49.657	80.017	
6	2240	38.06	-49.8806	80.0399	
6	2257	38.0678	-49.9721	80.0368	
6	2273	38.0931	-50.1346	79.9865	
6	2290	38.0398	-50.3217	80.0065	
7	7	37.4778	-59.8671	92.7666	
7	23	37.4282	-59.9774	92.688	
7	40	37.3993	-59.978	92.7384	
7	57	37.4246	-59.8875	92.795	
7	73	37.412	-59.9116	92.7793	
7	90	37.3969	-59.8779	92.8461	
7	107	37.3718	-59.8762	92.8783	
7	123	37.3729	-59.8015	92.9296	
7	140	37.3649	-59.7619	92.9007	
7	157	37.3216	-59.8904	92.9349	
7	173	37.3104	-59.7844	93.0346	
7	190	37.2803	-59.8402	93.0567	
7	207	37.2554	-59.8186	93.0222	
7	223	37.2495	-59.8244	93.1208	
7	240	37.2267	-59.789	93.1121	
7	257	37.197	-59.7937	93.1533	
7	273	37.1518	-59.8254	93.1778	
7	290	37.1498	-59.8106	93.2074	
7	307	37.1325	-59.7501	93.2325	
7	323	37.1205	-59.6642	93.284	
7	340	37.0565	-59.777	93.2847	
7	357	37.0064	-59.7577	93.2835	
7	373	37.008	-59.6929	93.3304	
7	390	36.9641	-59.7018	93.3293	
7	407	36.9395	-59.6417	93.3898	
7	423	36.9232	-59.659	93.396	
7	440	36.8734	-59.664	93.421	
7	457	36.8509	-59.6023	93.436	
7	473	36.8219	-59.611	93.4528	
7	490	36.7802	-59.605	93.4573	
7	507	36.7731	-59.5722	93.4614	
7	523	36.7173	-59.5736	93.4523	
7	540	36.6962	-59.5399	93.4525	
7	557	36.6307	-59.6645	93.5014	
7	573	36.6214	-59.5403	93.4476	
7	590	36.6172	-59.5626	93.5531	
7	607	36.5888	-59.5903	93.4842	
7	623	36.5055	-59.628	93.5078	
7	640	36.5262	-59.5984	93.5073	
7	657	36.4332	-59.6847	93.4517	
7	673	36.4533	-59.5595	93.5397	
7	690	36.4682	-59.551	93.5012	
7	707	36.3981	-59.5719	93.4836	
7	723	36.372	-59.6178	93.4557	
7	740	36.3864	-59.5316	93.4422	
7	757	36.3164	-59.6019	93.4757	
7	773	36.2863	-59.5862	93.4365	
7	790	36.3232	-59.4794	93.4189	
7	807	36.2475	-59.5252	93.3426	
7	823	36.2833	-59.4409	93.3225	
7	840	36.2154	-59.4084	93.3433	
7	857	36.2267	-59.4	93.2436	
7	873	36.228	-59.313	93.2695	
7	890	36.1727	-59.3144	93.18	
7	907	36.1673	-59.217	93.2037	
7	923	36.2114	-59.0144	93.1383	
7	940	36.1737	-58.9741	93.1153	
7	957	36.1806	-58.8126	93.0545	
7	973	36.1446	-58.7765	93.1086	
7	990	36.1448	-58.6615	92.9723	
7	1007	36.1555	-58.5084	92.9596	
7	1023	36.1749	-58.2758	92.9157	
7	1040	36.1998	-58.0855	92.8677	
7	1057	38.4795	-55.7753	90.2109	
7	1073	38.4963	-55.6214	90.1141	
7	1090	38.5299	-55.3546	90.1615	
7	1107	38.5005	-55.1677	90.0377	
7	1123	38.5082	-55.0123	90.0191	
7	1140	38.4976	-54.7169	90.0477	
7	1157	38.5052	-54.5312	90.0142	
7	1173	38.478	-54.3367	89.98	
7	1190	38.4905	-54.0839	89.9822	
7	1207	38.4727	-53.8538	89.9855	
7	1223	38.4806	-53.5884	89.9736	
7	1240	38.4704	-53.3368	89.9486	
7	1257	38.4952	-53.061	89.9656	
7	1273	38.4549	-52.862	89.9308	
7	1290	38.7301	-53.7163	86.7839	
7	1307	38.7631	-53.4159	86.7559	
7	1323	38.7132	-53.2342	86.6821	
7	1340	38.7572	-52.9202	86.7701	
7	1357	38.7236	-52.6676	86.8464	
7	1373	38.7333	-52.4231	86.8756	
7	1390	38.6885	-52.2048	86.8412	
7	1407	38.7004	-51.9303	86.9296	
7	1423	38.5833	-51.8768	86.9305	
7	1440	38.6272	-51.6259	86.956	
7	1457	38.577	-51.4298	86.9906	
7	1473	38.5573	-51.255	87.0254	
7	1490	38.5823	-51.0196	86.9607	
7	1507	38.5309	-50.9223	86.991	
7	1523	38.504	-50.8206	87.0184	
7	1540	38.1586	-51.6109	84.0318	
7	1557	38.0775	-51.778	83.1825	
7	1573	38.0945	-51.6974	83.1773	
7	1590	38.0159	-51.675	83.1385	
7	1607	38.0029	-51.589	82.7122	
7	1623	37.9309	-51.6088	82.6691	
7	1640	37.9127	-51.5669	82.7149	
7	1657	37.937	-51.5381	82.662	
7	1673	37.9072	-51.5253	82.6626	
7	1690	37.8643	-51.6386	82.5869	
7	1707	37.8676	-51.6381	82.5936	
7	1723	37.815	-51.7016	82.5606	
7	1740	37.7881	-51.7921	82.6035	
7	1757	37.8212	-51.8108	82.5248	
7	1773	37.7526	-51.9987	82.4707	
7	1790	37.7574	-52.0496	82.5092	
7	1807	37.705	-52.2202	82.4955	
7	1823	37.7425	-52.3109	82.4585	
7	1840	37.686	-52.5298	81.9479	
7	1857	37.8215	-52.4541	81.0987	
7	1873	37.7695	-52.671	81.0277	
7	1890	37.7615	-52.8309	80.992	
7	1907	37.7567	-52.9625	80.9781	
7	1923	37.7539	-52.7447	81.2955	
7	1940	37.6634	-52.3279	81.9685	
7	1957	37.5984	-52.5349	81.9496	
7	1973	37.6099	-52.617	82.0895	
7	1990	37.5485	-52.8336	82.0353	
7	2007	37.5459	-52.9387	82.0618	
7	2023	37.4599	-53.1847	82.0983	
7	2040	37.4331	-53.4247	82.0365	
7	2057	37.4507	-53.4941	82.0968	
7	2073	37.4095	-53.7023	82.0896	
7	2090	37.3899	-53.9013	82.0905	
7	2107	37.3694	-54.0215	82.1721	
7	2123	37.3246	-54.2601	82.1539	
7	2140	37.3129	-54.4251	82.1297	
7	2157	37.3012	-54.5735	82.1855	
7	2173	37.2875	-54.7291	82.2421	
7	2190	37.2687	-54.8527	82.2822	
7	2207	37.2525	-55.0085	82.2556	
7	2223	37.253	-55.1234	82.3139	
7	2240	37.2292	-55.3362	82.3586	
7	2257	37.2298	-55.4171	82.3771	
7	2273	37.2459	-55.5692	82.3473	
7	2290	37.1855	-55.7489	82.3813	
8	7	36.7346	-62.3387	94.2943	
8	23	36.6858	-62.4497	94.2148	
8	40	36.659	-62.452	94.2637	
8	57	36.6861	-62.3626	94.3193	
8	73	36.6748	-62.3873	94.3033	
8	90	36.6616	-62.3547	94.3691	
8	107	36.6371	-62.3529	94.402	
8	123	36.64	-62.2798	94.4516	
8	140	36.6323	-62.2402	94.4227	
8	157	36.591	-62.3707	94.4546	
8	173	36.5819	-62.266	94.5532	
8	190	36.553	-62.3229	94.5739	
8	207	36.5275	-62.301	94.5399	
8	223	36.5242	-62.3083	94.6372	
8	240	36.5021	-62.2739	94.6271	
8	257	36.4733	-62.2791	94.6681	
8	273	36.4293	-62.3115	94.6919	
8	290	36.4279	-62.2977	94.7202	
8	307	36.4107	-62.238	94.7441	
8	323	36.4002	-62.153	94.7948	
8	340	36.3377	-62.2676	94.7932	
8	357	36.2884	-62.2493	94.7907	
8	373	36.2908	-62.1856	94.8362	
8	390	36.2473	-62.1956	94.8335	
8	407	36.2237	-62.1359	94.8937	
8	423	36.2084	-62.1547	94.898	
8	440	36.159	-62.1595	94.9235	
8	457	36.1376	-62.0995	94.9362	
8	473	36.1092	-62.1089	94.9521	
8	490	36.0678	-62.1035	94.9557	
8	507	36.0608	-62.0709	94.9596	
8	523	36.0059	-62.0738	94.9483	
8	540	35.9846	-62.0412	94.9467	
8	557	35.9198	-62.1658	94.996	
8	573	35.9104	-62.0418	94.9418	
8	590	35.9075	-62.0654	95.0456	
8	607	35.8786	-62.0931	94.9767	
8	623	35.7965	-62.1317	94.9993	
8	640	35.8163	-62.1015	94.9994	
8	657	35.7229	-62.188	94.9433	
8	673	35.7437	-62.0628	95.0316	
8	690	35.758	-62.0548	94.9922	
8	707	35.6888	-62.0764	94.9737	
8	723	35.6613	-62.1217	94.9462	
8	740	35.6757	-62.036	94.9318	
8	757	35.6067	-62.1074	94.964	
8	773	35.5764	-62.0917	94.9248	
8	790	35.6132	-61.9853	94.9063	
8	807	35.5367	-62.0307	94.8304	
8	823	35.5721	-61.9467	94.8098	
8	840	35.5054	-61.9153	94.8292	
8	857	35.5159	-61.907	94.729	
8	873	35.5177	-61.8208	94.7538	
8	890	35.4616	-61.822	94.6642	
8	907	35.4573	-61.7258	94.6864	
8	923	35.5007	-61.5233	94.6205	
8	940	35.4636	-61.4843	94.5957	
8	957	35.4704	-61.3233	94.534	
8	973	35.4359	-61.2882	94.587	
8	990	35.4363	-61.1751	94.4478	
8	1007	35.4474	-61.0229	94.4335	
8	1023	35.4676	-60.7917	94.3877	
8	1040	35.4929	-60.6022	94.3385	
8	1057	37.8071	-58.3078	91.6696	
8	1073	37.8311	-58.1567	91.5712	
8	1090	37.87	-57.8942	91.6136	
8	1107	37.8444	-57.7111	91.4846	
8	1123	37.856	-57.5595	91.4613	
8	1140	37.8513	-57.2683	91.485	
8	1157	37.8634	-57.0862	91.4473	
8	1173	37.8409	-56.8957	91.4079	
8	1190	37.8587	-56.6464	91.4063	
8	1207	37.8461	-56.4198	91.4056	
8	1223	37.8589	-56.1582	91.3889	
8	1240	37.8535	-55.9109	91.3581	
8	1257	37.8827	-55.6388	91.3703	
8	1273	37.8472	-55.4438	91.3303	
8	1290	38.1367	-56.3297	88.1268	
8	1307	38.1782	-56.0374	88.0868	
8	1323	38.1351	-55.8621	88.0034	
8	1340	38.1856	-55.5543	88.0819	
8	1357	38.1585	-55.308	88.1487	
8	1373	38.174	-55.0686	88.1702	
8	1390	38.1353	-54.8562	88.1264	
8	1407	38.1522	-54.5864	88.2073	
8	1423	38.041	-54.5383	88.1996	
8	1440	38.0908	-54.2927	88.2166	
8	1457	38.0464	-54.1021	88.2421	
8	1473	38.0313	-53.9311	88.2708	
8	1490	38.0564	-53.698	88.2017	
8	1507	38.0096	-53.6056	88.2233	
8	1523	37.9877	-53.5075	88.245	
8	1540	37.6631	-54.2908	85.2826	
8	1557	37.605	-54.4508	84.4576	
8	1573	37.6292	-54.3718	84.4514	
8	1590	37.5558	-54.3521	84.409	
8	1607	37.5547	-54.2608	83.9983	
8	1623	37.4899	-54.2819	83.9549	
8	1640	37.477	-54.2409	84.0008	
8	1657	37.5055	-54.2132	83.9473	
8	1673	37.4805	-54.2007	83.9488	
8	1690	37.4417	-54.315	83.8725	
8	1707	37.4492	-54.3141	83.8816	
8	1723	37.4	-54.3782	83.8484	
8	1740	37.3763	-54.4679	83.8941	
8	1757	37.4116	-54.4858	83.8178	
8	1773	37.344	-54.6712	83.7693	
8	1790	37.3516	-54.7207	83.8119	
8	1807	37.3002	-54.8901	83.8008	
8	1823	37.3369	-54.9774	83.7705	
8	1840	37.2856	-55.19	83.2745	
8	1857	37.4158	-55.121	82.4096	
8	1873	37.3632	-55.337	82.3404	
8	1890	37.354	-55.4925	82.3134	
8	1907	37.3481	-55.6206	82.3063	
8	1923	37.3486	-55.428	82.5715	
8	1940	37.271	-55.0527	83.1541	
8	1957	37.2076	-55.2663	83.1207	
8	1973	37.22	-55.3502	83.2576	
8	1990	37.1587	-55.5671	83.2034	
8	2007	37.1541	-55.6718	83.2309	
8	2023	37.0685	-55.918	83.2675	
8	2040	37.0392	-56.1558	83.2104	
8	2057	37.0545	-56.2229	83.2756	
8	2073	37.0113	-56.4291	83.2727	
8	2090	36.9879	-56.6241	83.2816	
8	2107	36.9639	-56.7399	83.3721	
8	2123	36.9169	-56.9756	83.36	
8	2140	36.8992	-57.1356	83.3451	
8	2157	36.884	-57.2791	83.4105	
8	2173	36.8649	-57.4287	83.4785	
8	2190	36.8419	-57.5469	83.5291	
8	2207	36.8212	-57.6977	83.5116	
8	2223	36.8176	-57.8073	83.5799	
8	2240	36.7889	-58.0142	83.6353	
8	2257	36.7852	-58.089	83.6651	
8	2273	36.7964	-58.2352	83.6457	
8	2290	36.7321	-58.4105	83.6875	
9	7	35.1652	-67.192	97.4445	
9	23	35.1213	-67.3056	97.3638	
9	40	35.1	-67.311	97.4106	
9	57	35.1321	-67.2243	97.4646	
9	73	35.1251	-67.2513	97.4474	
9	90	35.1164	-67.2209	97.5119	
9	107	35.0952	-67.2204	97.5448	
9	123	35.1022	-67.15	97.5921	
9	140	35.0975	-67.1118	97.5627	
9	157	35.0601	-67.2455	97.5915	
9	173	35.0548	-67.1426	97.6889	
9	190	35.0291	-67.202	97.7074	
9	207	35.0059	-67.1813	97.673	
9	223	35.0062	-67.1909	97.7682	
9	240	34.987	-67.1588	97.7562	
9	257	34.9606	-67.1654	97.7961	
9	273	34.9192	-67.1996	97.8185	
9	290	34.9204	-67.1878	97.8448	
9	307	34.9053	-67.1301	97.8667	
9	323	34.8972	-67.0468	97.9159	
9	340	34.8374	-67.1639	97.9113	
9	357	34.7905	-67.1476	97.9069	
9	373	34.7951	-67.0862	97.9498	
9	390	34.7537	-67.0984	97.9446	
9	407	34.7321	-67.0404	98.0033	
9	423	34.7189	-67.0616	98.0046	
9	440	34.6712	-67.0676	98.0294	
9	457	34.6518	-67.0098	98.0393	
9	473	34.6253	-67.0212	98.053	
9	490	34.5854	-67.0174	98.0549	
9	507	34.5798	-66.9862	98.0575	
9	523	34.5266	-66.9915	98.0431	
9	540	34.5065	-66.961	98.0386	
9	557	34.4431	-67.0869	98.0868	
9	573	34.4347	-66.964	98.0315	
9	590	34.4335	-66.9898	98.1326	
9	607	34.4054	-67.0184	98.0628	
9	623	34.3247	-67.0586	98.0834	
9	640	34.345	-67.0293	98.0826	
9	657	34.2522	-67.1168	98.0253	
9	673	34.2737	-66.9923	98.1131	
9	690	34.2888	-66.9857	98.0718	
9	707	34.2207	-67.0086	98.0517	
9	723	34.1929	-67.0546	98.0234	
9	740	34.2079	-66.9704	98.0069	
9	757	34.1398	-67.0433	98.037	
9	773	34.1101	-67.0287	97.9965	
9	790	34.1474	-66.9238	97.976	
9	807	34.0707	-66.9698	97.8992	
9	823	34.1065	-66.8872	97.8766	
9	840	34.0406	-66.8577	97.8934	
9	857	34.0513	-66.8506	97.7915	
9	873	34.0535	-66.766	97.8139	
9	890	33.9973	-66.7684	97.7225	
9	907	33.994	-66.6742	97.7419	
9	923	34.0373	-66.4731	97.6739	
9	940	34.0008	-66.4363	97.6457	
9	957	34.0078	-66.277	97.5814	
9	973	33.9745	-66.244	97.6317	
9	990	33.9757	-66.1338	97.4879	
9	1007	33.9877	-65.9842	97.4699	
9	1023	34.0089	-65.7556	97.4203	
9	1040	34.0351	-65.5686	97.3676	
9	1057	36.367	-63.2759	94.6977	
9	1073	36.4008	-63.1306	94.5942	
9	1090	36.4508	-62.8768	94.6274	
9	1107	36.4357	-62.7024	94.4892	
9	1123	36.4582	-62.5596	94.4566	
9	1140	36.465	-62.2765	94.4721	
9	1157	36.4876	-62.1024	94.4257	
9	1173	36.4758	-61.9205	94.3769	
9	1190	36.5045	-61.6791	94.3671	
9	1207	36.5022	-61.4601	94.3582	
9	1223	36.5253	-61.2066	94.3324	
9	1240	36.5298	-60.9674	94.2919	
9	1257	36.5686	-60.7033	94.2947	
9	1273	36.5427	-60.5162	94.2451	
9	1290	36.8518	-61.418	91.007	
9	1307	36.91	-61.1431	90.9435	
9	1323	36.8806	-60.9843	90.8376	
9	1340	36.9436	-60.6922	90.8939	
9	1357	36.929	-60.4613	90.9386	
9	1373	36.9559	-60.2355	90.9408	
9	1390	36.9289	-60.0368	90.8771	
9	1407	36.957	-59.7805	90.9385	
9	1423	36.8572	-59.745	90.9121	
9	1440	36.9185	-59.5122	90.9099	
9	1457	36.8852	-59.3341	90.9162	
9	1473	36.8804	-59.1745	90.9282	
9	1490	36.9139	-58.9528	90.8425	
9	1507	36.8771	-58.8717	90.8462	
9	1523	36.8647	-58.7836	90.8526	
9	1540	36.5611	-59.561	87.9132	
9	1557	36.5287	-59.7183	87.1059	
9	1573	36.5686	-59.6427	87.0995	
9	1590	36.511	-59.6272	87.0549	
9	1607	36.5298	-59.5341	86.6573	
9	1623	36.4831	-59.5574	86.6168	
9	1640	36.486	-59.5182	86.6653	
9	1657	36.5291	-59.4926	86.6135	
9	1673	36.5182	-59.4814	86.618	
9	1690	36.4926	-59.5978	86.5425	
9	1707	36.5125	-59.5975	86.5553	
9	1723	36.4746	-59.6628	86.524	
9	1740	36.4612	-59.7525	86.5739	
9	1757	36.5056	-59.77	86.5018	
9	1773	36.4454	-59.9537	86.4601	
9	1790	36.4609	-60.0015	86.5089	
9	1807	36.4159	-60.1694	86.5034	
9	1823	36.4568	-60.253	86.4825	
9	1840	36.4125	-60.4582	86.0041	
9	1857	36.5426	-60.3863	85.1416	
9	1873	36.4927	-60.5998	85.0779	
9	1890	36.4852	-60.75	85.0626	
9	1907	36.4804	-60.8728	85.0666	
9	1923	36.487	-60.7033	85.281	
9	1940	36.4262	-60.3762	85.7557	
9	1957	36.3669	-60.6069	85.6899	
9	1973	36.3833	-60.7037	85.8054	
9	1990	36.325	-60.9294	85.7374	
9	2007	36.3218	-61.0406	85.7548	
9	2023	36.238	-61.2921	85.7827	
9	2040	36.2077	-61.5313	85.7247	
9	2057	36.2212	-61.5983	85.7912	
9	2073	36.1757	-61.8034	85.791	
9	2090	36.1477	-61.9946	85.8081	
9	2107	36.1183	-62.1048	85.9102	
9	2123	36.0671	-62.3352	85.9079	
9	2140	36.0412	-62.4876	85.907	
9	2157	36.0189	-62.6228	85.988	
9	2173	35.9905	-62.7618	86.0754	
9	2190	35.9591	-62.8695	86.1446	
9	2207	35.93	-63.0102	86.145	
9	2223	35.9176	-63.1088	86.2324	
9	2240	35.8791	-63.3042	86.3077	
9	2257	35.8662	-63.3666	86.3588	
9	2273	35.8677	-63.5005	86.36	
9	2290	35.7953	-63.6649	86.4197	
10	7	34.339	-69.5739	99.0667	
10	23	34.2994	-69.6893	98.9858	
10	40	34.2813	-69.6961	99.032	
10	57	34.3165	-69.6109	99.0853	
10	73	34.3127	-69.6395	99.0674	
10	90	34.3065	-69.6103	99.1316	
10	107	34.288	-69.6113	99.1637	
10	123	34.2974	-69.542	99.2104	
10	140	34.2952	-69.5052	99.1806	
10	157	34.2599	-69.6399	99.2086	
10	173	34.2561	-69.5378	99.3057	
10	190	34.2326	-69.5984	99.3234	
10	207	34.2122	-69.5792	99.2882	
10	223	34.2136	-69.5897	99.3828	
10	240	34.1965	-69.5587	99.3701	
10	257	34.1717	-69.5664	99.4092	
10	273	34.1317	-69.6016	99.4308	
10	290	34.1349	-69.5908	99.4566	
10	307	34.1216	-69.5343	99.4776	
10	323	34.1145	-69.4519	99.526	
10	340	34.0559	-69.5697	99.521	
10	357	34.0105	-69.5544	99.5156	
10	373	34.0166	-69.4941	99.5575	
10	390	33.9769	-69.5076	99.5514	
10	407	33.9564	-69.4508	99.6089	
10	423	33.9443	-69.473	99.6092	
10	440	33.8978	-69.4802	99.6328	
10	457	33.8794	-69.4231	99.6421	
10	473	33.854	-69.4357	99.6545	
10	490	33.8154	-69.4329	99.6556	
10	507	33.8111	-69.4028	99.6571	
10	523	33.7588	-69.409	99.6417	
10	540	33.7401	-69.3797	99.6362	
10	557	33.6772	-69.5067	99.683	
10	573	33.67	-69.3848	99.6269	
10	590	33.6693	-69.4114	99.7269	
10	607	33.6425	-69.441	99.6562	
10	623	33.562	-69.4819	99.6759	
10	640	33.5836	-69.4541	99.6737	
10	657	33.4918	-69.5424	99.6156	
10	673	33.5135	-69.4186	99.7024	
10	690	33.5298	-69.413	99.6603	
10	707	33.4618	-69.4364	99.6394	
10	723	33.4352	-69.4836	99.61	
10	740	33.4509	-69.4005	99.5922	
10	757	33.3826	-69.4738	99.6215	
10	773	33.3536	-69.4602	99.5798	
10	790	33.3917	-69.3565	99.558	
10	807	33.3155	-69.4034	99.4801	
10	823	33.352	-69.3221	99.4559	
10	840	33.2859	-69.2931	99.4717	
10	857	33.2975	-69.2872	99.3685	
10	873	33.2997	-69.2034	99.3896	
10	890	33.2443	-69.2072	99.2966	
10	907	33.2407	-69.1139	99.3145	
10	923	33.2846	-68.914	99.245	
10	940	33.248	-68.8781	99.2153	
10	957	33.2554	-68.7201	99.1492	
10	973	33.2218	-68.6881	99.1978	
10	990	33.2238	-68.5791	99.0524	
10	1007	33.2361	-68.431	99.0323	
10	1023	33.2576	-68.2036	98.9809	
10	1040	33.2843	-68.0183	98.9258	
10	1057	35.5993	-65.7115	96.2669	
10	1073	35.6358	-65.5693	96.16	
10	1090	35.6914	-65.3199	96.189	
10	1107	35.6832	-65.1503	96.0468	
10	1123	35.7126	-65.0127	96.0095	
10	1140	35.7251	-64.7332	96.0217	
10	1157	35.7537	-64.5637	95.9711	
10	1173	35.7479	-64.3864	95.9179	
10	1190	35.7822	-64.1495	95.9035	
10	1207	35.785	-63.9345	95.8906	
10	1223	35.8134	-63.6852	95.8604	
10	1240	35.8231	-63.4498	95.816	
10	1257	35.867	-63.1899	95.8143	
10	1273	35.8459	-63.0069	95.7604	
10	1290	36.1604	-63.8929	92.5442	
10	1307	36.2267	-63.6273	92.4692	
10	1323	36.2043	-63.4785	92.3504	
10	1340	36.2733	-63.196	92.394	
10	1357	36.2646	-62.9743	92.4262	
10	1373	36.2972	-62.757	92.4168	
10	1390	36.2756	-62.566	92.3424	
10	1407	36.31	-62.3185	92.3918	
10	1423	36.2157	-62.2902	92.3554	
10	1440	36.2825	-62.0649	92.3425	
10	1457	36.2547	-61.8939	92.3387	
10	1473	36.2555	-61.7417	92.3402	
10	1490	36.2973	-61.5293	92.2422	
10	1507	36.2658	-61.4545	92.2367	
10	1523	36.2581	-61.3728	92.2336	
10	1540	35.9546	-62.1513	89.2929	
10	1557	35.9248	-62.3131	88.4791	
10	1573	35.9733	-62.2392	88.4733	
10	1590	35.9263	-62.2253	88.4303	
10	1607	35.9531	-62.1357	88.0302	
10	1623	35.9173	-62.1598	87.9925	
10	1640	35.9306	-62.1215	88.0438	
10	1657	35.9843	-62.0969	87.9942	
10	1673	35.9826	-62.0868	88.0007	
10	1690	35.9661	-62.2042	87.9269	
10	1707	35.9942	-62.205	87.9409	
10	1723	35.9641	-62.2708	87.9116	
10	1740	35.9579	-62.3612	87.9629	
10	1757	36.0092	-62.3794	87.8925	
10	1773	35.9554	-62.5637	87.8522	
10	1790	35.9759	-62.6115	87.9031	
10	1807	35.9363	-62.7788	87.9005	
10	1823	35.9824	-62.8622	87.8822	
10	1840	35.9397	-63.0662	87.4068	
10	1857	36.0752	-62.9848	86.5625	
10	1873	36.0285	-63.1967	86.5026	
10	1890	36.0241	-63.3461	86.4903	
10	1907	36.0213	-63.4669	86.4986	
10	1923	36.0309	-63.2954	86.7145	
10	1940	35.9736	-62.9749	87.1717	
10	1957	35.9172	-63.216	87.088	
10	1973	35.9365	-63.324	87.1851	
10	1990	35.8812	-63.5582	87.1031	
10	2007	35.8812	-63.6763	87.1095	
10	2023	35.7989	-63.933	87.1286	
10	2040	35.7701	-64.1757	87.065	
10	2057	35.784	-64.245	87.128	
10	2073	35.7383	-64.4511	87.1263	
10	2090	35.7095	-64.6424	87.1435	
10	2107	35.6784	-64.7512	87.2481	
10	2123	35.625	-64.9794	87.2496	
10	2140	35.5968	-65.1292	87.2535	
10	2157	35.5709	-65.2608	87.3405	
10	2173	35.5388	-65.3952	87.4357	
10	2190	35.5033	-65.498	87.5133	
10	2207	35.4702	-65.6333	87.5225	
10	2223	35.4529	-65.7263	87.6189	
10	2240	35.4098	-65.9161	87.7033	
10	2257	35.3919	-65.9722	87.7645	
10	2273	35.3886	-66.0998	87.7758	
10	2290	35.312	-66.2578	87.8456	

